0	-8.02241E-05
0.002	-9.23099E-05
0.004	-0.000103824
0.006	-0.000114184
0.008	-0.000122875
0.01	-0.000129516
0.012	-0.000133855
0.014	-0.000135814
0.016	-0.000135466
0.018	-0.000133035
0.02	-0.000128844
0.022	-0.000123304
0.024	-0.000116849
0.026	-0.000109926
0.028	-0.000102961
0.03	-9.63147E-05
0.032	-9.02884E-05
0.034	-8.50965E-05
0.036	-8.08677E-05
0.038	-7.76496E-05
0.04	-7.54136E-05
0.042	-7.40787E-05
0.044	-7.35256E-05
0.046	-7.36019E-05
0.048	-7.41597E-05
0.05	-7.50513E-05
0.052	-7.61335E-05
0.054	-7.7292E-05
0.056	-7.84315E-05
0.058	-7.94708E-05
0.06	-8.03814E-05
0.062	-8.11585E-05
0.064	-8.18451E-05
0.066	-8.25221E-05
0.068	-8.32992E-05
0.07	-8.4329E-05
0.072	-8.5764E-05
0.074	-8.77759E-05
0.076	-9.05125E-05
0.078	-9.41168E-05
0.08	-9.86841E-05
0.082	-0.000104262
0.084	-0.000110818
0.086	-0.000118246
0.088	-0.000126327
0.09	-0.000134765
0.092	-0.000143175
0.094	-0.000151104
0.096	-0.000158074
0.098	-0.0001636
0.1	-0.000167251
0.102	-0.000168696
0.104	-0.000167719
0.106	-0.000164296
0.108	-0.000158608
0.11	-0.00015107
0.112	-0.000142336
0.114	-0.000133273
0.116	-0.000124906
0.118	-0.00011836
0.12	-0.00011476
0.122	-0.000115104
0.124	-0.000120153
0.126	-0.000130303
0.128	-0.000145483
0.13	-0.000165063
0.132	-0.000187805
0.134	-0.000211862
0.136	-0.000234832
0.138	-0.00025384
0.14	-0.00026574
0.142	-0.000267318
0.144	-0.000255538
0.146	-0.000227852
0.148	-0.000182436
0.15	-0.00011847
0.152	-3.62875E-05
0.154	6.24744E-05
0.156	0.00017488
0.158	0.000296758
0.16	0.000422918
0.162	0.000547414
0.164	0.000663933
0.166	0.000766198
0.168	0.000848486
0.17	0.000905983
0.172	0.000935256
0.174	0.00093435
0.176	0.000903218
0.178	0.000843433
0.18	0.000758188
0.182	0.000652205
0.184	0.000531013
0.186	0.000400858
0.188	0.000268143
0.19	0.00013897
0.192	1.87928E-05
0.194	-8.78713E-05
0.196	-0.000177669
0.198	-0.00024851
0.2	-0.000299571
0.202	-0.000331218
0.204	-0.000344834
0.206	-0.000342617
0.208	-0.000327342
0.21	-0.000302107
0.212	-0.000270112
0.214	-0.000234427
0.216	-0.000197826
0.218	-0.00016266
0.22	-0.000130756
0.222	-0.00010338
0.224	-8.12634E-05
0.226	-6.4615E-05
0.228	-5.32348E-05
0.23	-4.65702E-05
0.232	-4.38517E-05
0.234	-4.41716E-05
0.236	-4.6584E-05
0.238	-5.01836E-05
0.24	-5.4174E-05
0.242	-5.7907E-05
0.244	-6.08963E-05
0.246	-6.28605E-05
0.248	-6.3671E-05
0.25	-6.33659E-05
0.252	-6.20739E-05
0.254	-6.00143E-05
0.256	-5.74398E-05
0.258	-5.46031E-05
0.26	-5.17378E-05
0.262	-4.90346E-05
0.264	-4.66384E-05
0.266	-4.46312E-05
0.268	-4.30422E-05
0.27	-4.18451E-05
0.272	-4.09726E-05
0.274	-4.03251E-05
0.276	-3.97888E-05
0.278	-3.9251E-05
0.28	-3.86117E-05
0.282	-3.77926E-05
0.284	-3.67428E-05
0.286	-3.54355E-05
0.288	-3.38656E-05
0.29	-3.20477E-05
0.292	-3.00095E-05
0.294	-2.77902E-05
0.296	-2.54355E-05
0.298	-2.29917E-05
0.3	-2.05006E-05
0.302	-1.79933E-05
0.304	-1.54841E-05
0.306	-1.29707E-05
0.308	-1.04348E-05
0.31	-7.84553E-06
0.312	-5.1671E-06
0.314	-2.36143E-06
0.316	6.0882E-07
0.318	3.77864E-06
0.32	7.18188E-06
0.322	1.0852E-05
0.324	1.48215E-05
0.326	1.91204E-05
0.328	2.3775E-05
0.33	2.88076E-05
0.332	3.42355E-05
0.334	4.00749E-05
0.336	4.63428E-05
0.338	5.30584E-05
0.34	6.02384E-05
0.342	6.79046E-05
0.344	7.60667E-05
0.346	8.47151E-05
0.348	9.3826E-05
0.35	0.000103366
0.352	0.000113273
0.354	0.000123476
0.356	0.000133893
0.358	0.000144429
0.36	0.000154985
0.362	0.000165454
0.364	0.000175738
0.366	0.00018574
0.368	0.00019538
0.37	0.000204601
0.372	0.000213378
0.374	0.000221702
0.376	0.000229602
0.378	0.00023712
0.38	0.000244305
0.382	0.000251209
0.384	0.000257864
0.386	0.0002643
0.388	0.000270513
0.39	0.000276477
0.392	0.000282117
0.394	0.000287333
0.396	0.000291976
0.398	0.000295867
0.4	0.000298803
0.402	0.000300572
0.404	0.000300977
0.406	0.000299843
0.408	0.000297035
0.41	0.000292467
0.412	0.000286098
0.414	0.00027795
0.416	0.000268091
0.418	0.000256653
0.42	0.000243805
0.422	0.000229764
0.424	0.000214775
0.426	0.000199094
0.428	0.00018298
0.43	0.000166694
0.432	0.000150455
0.434	0.000134474
0.436	0.000118932
0.438	0.000103976
0.44	8.97354E-05
0.442	7.62956E-05
0.444	6.37235E-05
0.446	5.20524E-05
0.448	4.12892E-05
0.45	3.14098E-05
0.452	2.23757E-05
0.454	1.41354E-05
0.456	6.62741E-06
0.458	-2.13826E-07
0.46	-6.45864E-06
0.462	-1.21807E-05
0.464	-1.74536E-05
0.466	-2.23495E-05
0.468	-2.69321E-05
0.47	-3.12544E-05
0.472	-3.53535E-05
0.474	-3.92515E-05
0.476	-4.29554E-05
0.478	-4.64644E-05
0.48	-4.97688E-05
0.482	-5.28582E-05
0.484	-5.57092E-05
0.486	-5.83123E-05
0.488	-6.06436E-05
0.49	-6.26746E-05
0.492	-6.43957E-05
0.494	-6.57926E-05
0.496	-6.68653E-05
0.498	-6.76329E-05
0.5	-6.81144E-05
0.502	-6.8348E-05
0.504	-6.83719E-05
0.506	-6.82193E-05
0.508	-6.7938E-05
0.51	-6.75566E-05
0.512	-6.71085E-05
0.514	-6.66269E-05
0.516	-6.61454E-05
0.518	-6.56782E-05
0.52	-6.52396E-05
0.522	-6.48391E-05
0.524	-6.4472E-05
0.526	-6.41335E-05
0.528	-6.38141E-05
0.53	-6.35137E-05
0.532	-6.32372E-05
0.534	-6.29845E-05
0.536	-6.27747E-05
0.538	-6.26126E-05
0.54	-6.2503E-05
0.542	-6.24601E-05
0.544	-6.24791E-05
0.546	-6.25793E-05
0.548	-6.277E-05
0.55	-6.30656E-05
0.552	-6.34708E-05
0.554	-6.39952E-05
0.556	-6.46293E-05
0.558	-6.53683E-05
0.56	-6.61883E-05
0.562	-6.70751E-05
0.564	-6.80048E-05
0.566	-6.89583E-05
0.568	-6.99118E-05
0.57	-7.08462E-05
0.572	-7.1733E-05
0.574	-7.25435E-05
0.576	-7.32539E-05
0.578	-7.38498E-05
0.58	-7.43266E-05
0.582	-7.46794E-05
0.584	-7.49225E-05
0.586	-7.50703E-05
0.588	-7.51371E-05
0.59	-7.51418E-05
0.592	-7.50942E-05
0.594	-7.50226E-05
0.596	-7.49416E-05
0.598	-7.48749E-05
0.6	-7.48462E-05
0.602	-7.48796E-05
0.604	-7.49845E-05
0.606	-7.51657E-05
0.608	-7.54231E-05
0.61	-7.57569E-05
0.612	-7.61478E-05
0.614	-7.65864E-05
0.616	-7.70679E-05
0.618	-7.75781E-05
0.62	-7.81025E-05
0.622	-7.86317E-05
0.624	-7.91418E-05
0.626	-7.96138E-05
0.628	-8.00381E-05
0.63	-8.04005E-05
0.632	-8.07008E-05
0.634	-8.09297E-05
0.636	-8.1087E-05
0.638	-8.11776E-05
0.64	-8.11824E-05
0.642	-8.11108E-05
0.644	-8.09535E-05
0.646	-8.07247E-05
0.648	-8.04386E-05
0.65	-8.0124E-05
0.652	-7.98141E-05
0.654	-7.95375E-05
0.656	-7.93325E-05
0.658	-7.92277E-05
0.66	-7.92467E-05
0.662	-7.94136E-05
0.664	-7.97473E-05
0.666	-8.02718E-05
0.668	-8.09821E-05
0.67	-8.18832E-05
0.672	-8.29511E-05
0.674	-8.41573E-05
0.676	-8.54493E-05
0.678	-8.6789E-05
0.68	-8.81144E-05
0.682	-8.93778E-05
0.684	-9.05173E-05
0.686	-9.14851E-05
0.688	-9.22098E-05
0.69	-9.26389E-05
0.692	-9.27008E-05
0.694	-9.23337E-05
0.696	-9.14994E-05
0.698	-9.01502E-05
0.7	-8.82765E-05
0.702	-8.58832E-05
0.704	-8.29797E-05
0.706	-7.96138E-05
0.708	-7.58331E-05
0.71	-7.17187E-05
0.712	-6.73611E-05
0.714	-6.28796E-05
0.716	-5.83886E-05
0.718	-5.40119E-05
0.72	-4.98641E-05
0.722	-4.60367E-05
0.724	-4.25936E-05
0.726	-3.95719E-05
0.728	-3.6984E-05
0.73	-3.4821E-05
0.732	-3.30613E-05
0.734	-3.16729E-05
0.736	-3.06184E-05
0.738	-2.98579E-05
0.74	-2.93511E-05
0.742	-2.90608E-05
0.744	-2.89578E-05
0.746	-2.90212E-05
0.748	-2.924E-05
0.75	-2.96095E-05
0.752	-3.01292E-05
0.754	-0.0000308
0.756	-3.16224E-05
0.758	-3.26012E-05
0.76	-3.37516E-05
0.762	-3.51046E-05
0.764	-3.67113E-05
0.766	-3.86417E-05
0.768	-4.09797E-05
0.77	-4.38093E-05
0.772	-4.72048E-05
0.774	-5.12133E-05
0.776	-5.58474E-05
0.778	-6.10632E-05
0.78	-6.677E-05
0.782	-7.28057E-05
0.784	-7.89464E-05
0.786	-8.49011E-05
0.788	-9.03313E-05
0.79	-9.48558E-05
0.792	-9.81025E-05
0.794	-9.97426E-05
0.796	-9.95232E-05
0.798	-9.73302E-05
0.8	-9.3211E-05
0.802	-8.74184E-05
0.804	-8.03909E-05
0.806	-7.27819E-05
0.808	-6.54255E-05
0.81	-5.92753E-05
0.812	-5.53611E-05
0.814	-5.46794E-05
0.816	-5.80882E-05
0.818	-6.61883E-05
0.82	-7.91943E-05
0.822	-9.68486E-05
0.824	-0.000118308
0.826	-0.000142136
0.828	-0.000166312
0.83	-0.000188291
0.832	-0.000205135
0.834	-0.000213702
0.836	-0.000210865
0.838	-0.000193783
0.84	-0.000160157
0.842	-0.000108524
0.844	-3.84605E-05
0.846	4.92253E-05
0.848	0.00015241
0.85	0.000267685
0.852	0.00039047
0.854	0.000515232
0.856	0.0006359
0.858	0.000746174
0.86	0.000839905
0.862	0.000911704
0.864	0.000957378
0.866	0.000974017
0.868	0.000960429
0.87	0.000917187
0.872	0.000846579
0.874	0.00075242
0.876	0.000639762
0.878	0.000514517
0.88	0.000382951
0.882	0.000251371
0.884	0.000125583
0.886	1.06341E-05
0.888	-8.94732E-05
0.89	-0.000171928
0.892	-0.000235204
0.894	-0.00027898
0.896	-0.000304072
0.898	-0.000312224
0.9	-0.000305897
0.902	-0.000288029
0.904	-0.00026175
0.906	-0.000230203
0.908	-0.000196296
0.91	-0.000162579
0.912	-0.000131123
0.914	-0.000103471
0.916	-8.06103E-05
0.918	-6.30036E-05
0.92	-5.06555E-05
0.922	-4.31609E-05
0.924	-3.98374E-05
0.926	-3.98122E-05
0.928	-4.21302E-05
0.93	-4.58484E-05
0.932	-5.0112E-05
0.934	-5.41979E-05
0.936	-5.7559E-05
0.938	-5.98284E-05
0.94	-6.08153E-05
0.942	-6.04815E-05
0.944	-5.89273E-05
0.946	-5.63528E-05
0.948	-5.30203E-05
0.95	-4.923E-05
0.952	-4.52782E-05
0.954	-4.14207E-05
0.956	-3.7867E-05
0.958	-3.47609E-05
0.96	-3.2184E-05
0.962	-3.01607E-05
0.964	-2.86675E-05
0.966	-2.76424E-05
0.968	-2.69969E-05
0.97	-2.66203E-05
0.972	-2.639E-05
0.974	-2.61807E-05
0.976	-2.58756E-05
0.978	-2.53754E-05
0.98	-2.46069E-05
0.982	-2.35251E-05
0.984	-2.21135E-05
0.986	-2.03766E-05
0.988	-1.83352E-05
0.99	-1.60181E-05
0.992	-1.34594E-05
0.994	-1.0697E-05
0.996	-7.76973E-06
0.998	-4.71738E-06
1	-1.57459E-06
1.002	1.63313E-06
1.004	4.89487E-06
1.006	8.21645E-06
1.008	1.162E-05
1.01	1.5139E-05
1.012	1.88133E-05
1.014	2.26837E-05
1.016	2.67881E-05
1.018	3.11623E-05
1.02	3.58422E-05
1.022	4.08629E-05
1.024	4.62589E-05
1.026	5.2062E-05
1.028	5.82884E-05
1.03	6.4944E-05
1.032	7.20334E-05
1.034	7.95328E-05
1.036	8.74136E-05
1.038	9.56472E-05
1.04	0.0001042
1.042	0.000113049
1.044	0.00012215
1.046	0.000131466
1.048	0.000140939
1.05	0.000150522
1.052	0.000160148
1.054	0.000169769
1.056	0.000179333
1.058	0.000188801
1.06	0.000198126
1.062	0.00020728
1.064	0.000216234
1.066	0.000224944
1.068	0.000233387
1.07	0.000241535
1.072	0.000249378
1.074	0.000256896
1.076	0.000264072
1.078	0.000270889
1.08	0.000277297
1.082	0.000283247
1.084	0.000288648
1.086	0.000293416
1.088	0.000297426
1.09	0.000300572
1.092	0.000302722
1.094	0.000303757
1.096	0.000303547
1.098	0.000301974
1.1	0.000298937
1.102	0.000294346
1.104	0.000288162
1.106	0.000280381
1.108	0.000271037
1.11	0.000260224
1.112	0.000248062
1.114	0.000234708
1.116	0.000220348
1.118	0.000205192
1.12	0.000189468
1.122	0.000173411
1.124	0.000157263
1.126	0.000141249
1.128	0.000125569
1.13	0.000110389
1.132	9.58427E-05
1.134	8.20119E-05
1.136	6.89487E-05
1.138	5.66722E-05
1.14	4.51933E-05
1.142	3.44882E-05
1.144	2.45292E-05
1.146	1.52772E-05
1.148	6.68653E-06
1.15	-1.29044E-06
1.152	-8.69654E-06
1.154	-1.55638E-05
1.156	-2.19128E-05
1.158	-2.77516E-05
1.16	-3.30832E-05
1.162	-3.79104E-05
1.164	-4.22384E-05
1.166	-4.6082E-05
1.168	-4.94589E-05
1.17	-5.23909E-05
1.172	-5.49035E-05
1.174	-5.70107E-05
1.176	-5.87366E-05
1.178	-6.01097E-05
1.18	-6.11585E-05
1.182	-6.19166E-05
1.184	-6.24267E-05
1.186	-6.27318E-05
1.188	-6.28605E-05
1.19	-6.28415E-05
1.192	-6.26937E-05
1.194	-6.24362E-05
1.196	-6.2093E-05
1.198	-6.16782E-05
1.2	-6.12205E-05
1.202	-6.0739E-05
1.204	-6.02527E-05
1.206	-5.97759E-05
1.208	-5.93182E-05
1.21	-5.88749E-05
1.212	-5.84648E-05
1.214	-5.81025E-05
1.216	-5.78021E-05
1.218	-5.75971E-05
1.22	-5.7497E-05
1.222	-5.75256E-05
1.224	-5.7683E-05
1.226	-5.79595E-05
1.228	-5.83504E-05
1.23	-5.88319E-05
1.232	-5.9385E-05
1.234	-5.99905E-05
1.236	-6.0615E-05
1.238	-6.123E-05
1.24	-6.17926E-05
1.242	-6.22694E-05
1.244	-6.26126E-05
1.246	-6.28129E-05
1.248	-6.2851E-05
1.25	-6.27318E-05
1.252	-6.24696E-05
1.254	-6.20834E-05
1.256	-6.15924E-05
1.258	-6.10107E-05
1.26	-6.03576E-05
1.262	-5.96615E-05
1.264	-5.89368E-05
1.266	-5.82169E-05
1.268	-5.75256E-05
1.27	-5.6882E-05
1.272	-5.63051E-05
1.274	-5.58045E-05
1.276	-5.53802E-05
1.278	-5.50513E-05
1.28	-5.48176E-05
1.282	-5.46985E-05
1.284	-5.4708E-05
1.286	-5.48653E-05
1.288	-5.51752E-05
1.29	-5.56329E-05
1.292	-5.62288E-05
1.294	-5.6944E-05
1.296	-5.77688E-05
1.298	-5.86841E-05
1.3	-5.96901E-05
1.302	-6.07867E-05
1.304	-6.19547E-05
1.306	-6.32038E-05
1.308	-6.45149E-05
1.31	-6.58784E-05
1.312	-6.72992E-05
1.314	-6.87628E-05
1.316	-7.02789E-05
1.318	-7.18379E-05
1.32	-7.34398E-05
1.322	-7.50703E-05
1.324	-7.67008E-05
1.326	-7.83027E-05
1.328	-7.98522E-05
1.33	-8.13349E-05
1.332	-8.27271E-05
1.334	-8.40381E-05
1.336	-8.52729E-05
1.338	-8.64315E-05
1.34	-8.75328E-05
1.342	-8.85864E-05
1.344	-8.96162E-05
1.346	-9.06412E-05
1.348	-9.16853E-05
1.35	-9.27867E-05
1.352	-9.39499E-05
1.354	-9.51943E-05
1.356	-9.64911E-05
1.358	-9.78021E-05
1.36	-9.90703E-05
1.362	-0.000100224
1.364	-0.000101178
1.366	-0.000101855
1.368	-0.000102169
1.37	-0.00010205
1.372	-0.000101435
1.374	-0.000100291
1.376	-9.85983E-05
1.378	-9.63766E-05
1.38	-9.3683E-05
1.382	-9.06126E-05
1.384	-8.72801E-05
1.386	-8.38188E-05
1.388	-8.03623E-05
1.39	-7.70346E-05
1.392	-7.39309E-05
1.394	-7.11418E-05
1.396	-6.87247E-05
1.398	-6.67128E-05
1.4	-6.51251E-05
1.402	-6.39666E-05
1.404	-6.32181E-05
1.406	-6.28558E-05
1.408	-6.28367E-05
1.41	-6.31323E-05
1.412	-6.37044E-05
1.414	-6.45244E-05
1.416	-6.55828E-05
1.418	-6.6851E-05
1.42	-6.83099E-05
1.422	-6.99356E-05
1.424	-7.17139E-05
1.426	-7.36162E-05
1.428	-7.56424E-05
1.43	-7.78212E-05
1.432	-8.01907E-05
1.434	-8.28367E-05
1.436	-8.58403E-05
1.438	-8.93015E-05
1.44	-9.33206E-05
1.442	-9.7969E-05
1.444	-0.000103294
1.446	-0.000109287
1.448	-0.000115905
1.45	-0.000123008
1.452	-0.000130408
1.454	-0.000137821
1.456	-0.000144906
1.458	-0.000151261
1.46	-0.000156477
1.462	-0.000160167
1.464	-0.000162007
1.466	-0.000161783
1.468	-0.000159423
1.47	-0.000155046
1.472	-0.000148954
1.474	-0.000141673
1.476	-0.000133917
1.478	-0.000126574
1.48	-0.000120672
1.482	-0.000117254
1.484	-0.000117321
1.486	-0.000121707
1.488	-0.000130942
1.49	-0.000145163
1.492	-0.000163986
1.494	-0.000186479
1.496	-0.000211108
1.498	-0.000235776
1.5	-0.000257893
1.502	-0.000274498
1.504	-0.000282479
1.506	-0.000278765
1.508	-0.00026061
1.51	-0.000225864
1.512	-0.00017324
1.514	-0.000102522
1.516	-1.47375E-05
1.518	8.77998E-05
1.52	0.000201502
1.522	0.000321673
1.524	0.000442741
1.526	0.00055857
1.528	0.00066298
1.53	0.000750036
1.532	0.000814493
1.534	0.000852443
1.536	0.000861311
1.538	0.000840286
1.54	0.000790322
1.542	0.000714088
1.544	0.00061559
1.546	0.000500215
1.548	0.000373917
1.55	0.000243008
1.552	0.000113683
1.554	-8.41287E-06
1.556	-0.000118479
1.558	-0.000212806
1.56	-0.000288934
1.562	-0.00034565
1.564	-0.00038297
1.566	-0.000401955
1.568	-0.000404558
1.57	-0.00039334
1.572	-0.000371256
1.574	-0.000341406
1.576	-0.000306803
1.578	-0.000270226
1.58	-0.000234069
1.582	-0.000200262
1.584	-0.000170212
1.586	-0.000144815
1.588	-0.000124477
1.59	-0.000109159
1.592	-9.84887E-05
1.594	-9.18331E-05
1.596	-8.841E-05
1.598	-8.73564E-05
1.6	-8.78379E-05
1.602	-8.9087E-05
1.604	-9.04505E-05
1.606	-9.14279E-05
1.608	-9.16615E-05
1.61	-9.09654E-05
1.612	-8.92968E-05
1.614	-8.67318E-05
1.616	-8.34374E-05
1.618	-7.96472E-05
1.62	-7.56043E-05
1.622	-7.15518E-05
1.624	-6.76853E-05
1.626	-6.41716E-05
1.628	-6.11061E-05
1.63	-5.85459E-05
1.632	-5.64815E-05
1.634	-5.48796E-05
1.636	-5.36544E-05
1.638	-5.27056E-05
1.64	-5.18999E-05
1.642	-5.1118E-05
1.644	-5.0236E-05
1.646	-4.9149E-05
1.648	-4.77902E-05
1.65	-4.61101E-05
1.652	-4.40853E-05
1.654	-4.17154E-05
1.656	-3.9015E-05
1.658	-3.60095E-05
1.66	-3.27375E-05
1.662	-2.92472E-05
1.664	-2.55938E-05
1.666	-2.18389E-05
1.668	-1.80386E-05
1.67	-1.42393E-05
1.672	-1.0472E-05
1.674	-6.74756E-06
1.676	-3.06169E-06
1.678	6.04672E-07
1.68	4.27924E-06
1.682	7.99714E-06
1.684	1.17993E-05
1.686	1.57364E-05
1.688	1.9866E-05
1.69	2.42527E-05
1.692	2.89645E-05
1.694	3.40644E-05
1.696	3.96038E-05
1.698	4.5621E-05
1.7	5.21383E-05
1.702	5.91561E-05
1.704	6.66746E-05
1.706	7.46746E-05
1.708	8.31228E-05
1.71	9.19714E-05
1.712	0.000101163
1.714	0.000110613
1.716	0.000120229
1.718	0.000129907
1.72	0.000139557
1.722	0.000149087
1.724	0.000158422
1.726	0.000167523
1.728	0.000176348
1.73	0.000184887
1.732	0.00019313
1.734	0.000201087
1.736	0.000208787
1.738	0.000216248
1.74	0.000223504
1.742	0.000230584
1.744	0.000237492
1.746	0.00024421
1.748	0.000250689
1.75	0.000256858
1.752	0.000262608
1.754	0.000267824
1.756	0.000272362
1.758	0.000276095
1.76	0.00027887
1.762	0.000280539
1.764	0.000280968
1.766	0.000280019
1.768	0.000277578
1.77	0.000273564
1.772	0.000267924
1.774	0.000260648
1.776	0.000251762
1.778	0.000241335
1.78	0.000229473
1.782	0.000216296
1.784	0.000201974
1.786	0.000186689
1.788	0.000170656
1.79	0.000154093
1.792	0.000137249
1.794	0.000120338
1.796	0.000103585
1.798	8.71704E-05
1.8	7.1261E-05
1.802	5.59809E-05
1.804	4.14408E-05
1.806	2.77116E-05
1.808	1.48458E-05
1.81	2.86703E-06
1.812	-8.22789E-06
1.814	-1.84687E-05
1.816	-2.79032E-05
1.818	-3.65912E-05
1.82	-4.45945E-05
1.822	-5.19666E-05
1.824	-5.87604E-05
1.826	-6.50012E-05
1.828	-7.07223E-05
1.83	-7.5938E-05
1.832	-8.0677E-05
1.834	-8.49487E-05
1.836	-8.87771E-05
1.838	-9.21621E-05
1.84	-9.51132E-05
1.842	-9.76496E-05
1.844	-9.97807E-05
1.846	-0.00010153
1.848	-0.000102946
1.85	-0.000104067
1.852	-0.000104949
1.854	-0.000105635
1.856	-0.000106179
1.858	-0.000106613
1.86	-0.000106965
1.862	-0.000107261
1.864	-0.000107528
1.866	-0.000107795
1.868	-0.000108072
1.87	-0.000108367
1.872	-0.000108691
1.874	-0.000109025
1.876	-0.000109349
1.878	-0.00010965
1.88	-0.000109897
1.882	-0.000110088
1.884	-0.000110198
1.886	-0.000110222
1.888	-0.00011015
1.89	-0.000109969
1.892	-0.000109664
1.894	-0.00010923
1.896	-0.000108677
1.898	-0.000108019
1.9	-0.000107275
1.902	-0.000106474
1.904	-0.00010565
1.906	-0.000104815
1.908	-0.00010399
1.91	-0.00010318
1.912	-0.000102398
1.914	-0.00010165
1.916	-0.000100944
1.918	-0.0001003
1.92	-9.97139E-05
1.922	-9.91847E-05
1.924	-9.87032E-05
1.926	-9.82598E-05
1.928	-9.78451E-05
1.93	-9.74446E-05
1.932	-9.70536E-05
1.934	-9.66722E-05
1.936	-9.62956E-05
1.938	-9.59237E-05
1.94	-9.55471E-05
1.942	-9.51657E-05
1.944	-9.47747E-05
1.946	-9.43933E-05
1.948	-9.40453E-05
1.95	-9.37592E-05
1.952	-9.35733E-05
1.954	-9.35161E-05
1.956	-9.3621E-05
1.958	-9.3888E-05
1.96	-9.43266E-05
1.962	-9.49321E-05
1.964	-9.56949E-05
1.966	-9.65912E-05
1.968	-9.75971E-05
1.97	-9.86889E-05
1.972	-9.98188E-05
1.974	-0.000100939
1.976	-0.000102017
1.978	-0.000102999
1.98	-0.000103871
1.982	-0.00010461
1.984	-0.00010523
1.986	-0.000105726
1.988	-0.000106117
1.99	-0.000106422
1.992	-0.000106646
1.994	-0.000106813
1.996	-0.000106946
1.998	-0.000107075
2	-0.000107223
2.002	-0.000107428
2.004	-0.000107695
2.006	-0.000108048
2.008	-0.000108467
2.01	-0.000108954
2.012	-0.000109483
2.014	-0.000110031
2.016	-0.00011057
2.018	-0.000111066
2.02	-0.000111476
2.022	-0.000111743
2.024	-0.000111805
2.026	-0.000111595
2.028	-0.000111051
2.03	-0.000110136
2.032	-0.00010881
2.034	-0.00010707
2.036	-0.000104925
2.038	-0.000102398
2.04	-9.9528E-05
2.042	-9.63814E-05
2.044	-9.30203E-05
2.046	-8.95352E-05
2.048	-8.60215E-05
2.05	-8.25697E-05
2.052	-7.92706E-05
2.054	-7.61907E-05
2.056	-7.33826E-05
2.058	-7.08701E-05
2.06	-6.86627E-05
2.062	-6.67652E-05
2.064	-6.51728E-05
2.066	-6.38951E-05
2.068	-6.29273E-05
2.07	-6.22646E-05
2.072	-6.18975E-05
2.074	-6.18069E-05
2.076	-6.19642E-05
2.078	-6.23218E-05
2.08	-6.28558E-05
2.082	-6.35137E-05
2.084	-6.42718E-05
2.086	-6.50965E-05
2.088	-6.59785E-05
2.09	-6.69178E-05
2.092	-6.79523E-05
2.094	-6.91347E-05
2.096	-7.05602E-05
2.098	-7.23576E-05
2.1	-7.46508E-05
2.102	-7.75733E-05
2.104	-8.12253E-05
2.106	-8.56544E-05
2.108	-9.08415E-05
2.11	-9.66818E-05
2.112	-0.000103004
2.114	-0.000109545
2.116	-0.000115971
2.118	-0.000121888
2.12	-0.000126884
2.122	-0.000130536
2.124	-0.000132472
2.126	-0.000132405
2.128	-0.000130184
2.13	-0.000125845
2.132	-0.000119633
2.134	-0.000112014
2.136	-0.000103662
2.138	-9.54374E-05
2.14	-8.83385E-05
2.142	-8.34279E-05
2.144	-8.17306E-05
2.146	-8.41383E-05
2.148	-9.12944E-05
2.15	-0.000103466
2.152	-0.000120448
2.154	-0.000141473
2.156	-0.000165159
2.158	-0.00018954
2.16	-0.000212114
2.162	-0.000229974
2.164	-0.000239981
2.166	-0.000239004
2.168	-0.000224162
2.17	-0.000193106
2.172	-0.000144281
2.174	-7.71633E-05
2.176	7.56424E-06
2.178	0.000107919
2.18	0.000220615
2.182	0.000341182
2.184	0.000464181
2.186	0.000583552
2.188	0.00069292
2.19	0.000786317
2.192	0.000858164
2.194	0.000904172
2.196	0.00092143
2.198	0.000908605
2.2	0.000866269
2.202	0.000796615
2.204	0.000703456
2.206	0.0005918
2.208	0.00046759
2.21	0.000337168
2.212	0.000206822
2.214	8.24076E-05
2.216	-3.10241E-05
2.218	-0.000129487
2.22	-0.000210207
2.222	-0.000271681
2.224	-0.000313631
2.226	-0.000336877
2.228	-0.00034317
2.23	-0.000334942
2.232	-0.000315089
2.234	-0.000286708
2.236	-0.000252872
2.238	-0.000216453
2.24	-0.000179962
2.242	-0.000145454
2.244	-0.00011447
2.246	-8.80334E-05
2.248	-6.66889E-05
2.25	-5.05173E-05
2.252	-3.92534E-05
2.254	-3.23313E-05
2.256	-2.89993E-05
2.258	-2.84014E-05
2.26	-2.96648E-05
2.262	-3.19704E-05
2.264	-3.46088E-05
2.266	-3.70103E-05
2.268	-3.87638E-05
2.27	-3.96095E-05
2.272	-3.94279E-05
2.274	-3.82174E-05
2.276	-3.6071E-05
2.278	-3.31509E-05
2.28	-2.9662E-05
2.282	-2.58274E-05
2.284	-2.18651E-05
2.286	-1.79657E-05
2.288	-1.42799E-05
2.29	-1.0912E-05
2.292	-7.92038E-06
2.294	-5.323E-06
2.296	-3.1087E-06
2.298	-1.24286E-06
2.3	3.25035E-07
2.302	1.65836E-06
2.304	2.83042E-06
2.306	3.92086E-06
2.308	5.00977E-06
2.31	6.17163E-06
2.312	7.46698E-06
2.314	8.9416E-06
2.316	1.06226E-05
2.318	1.25244E-05
2.32	1.46513E-05
2.322	1.70036E-05
2.324	1.9579E-05
2.326	2.23719E-05
2.328	2.53726E-05
2.33	2.85669E-05
2.332	3.19361E-05
2.334	3.54641E-05
2.336	3.9139E-05
2.338	4.29592E-05
2.34	4.69344E-05
2.342	5.10799E-05
2.344	5.54184E-05
2.346	5.99714E-05
2.348	6.47533E-05
2.35	6.97688E-05
2.352	7.50369E-05
2.354	8.05626E-05
2.356	8.636E-05
2.358	9.24386E-05
2.36	9.88176E-05
2.362	0.000105502
2.364	0.000112491
2.366	0.000119771
2.368	0.000127333
2.37	0.000135166
2.372	0.000143251
2.374	0.00015159
2.376	0.000160162
2.378	0.000168944
2.38	0.000177912
2.382	0.000187023
2.384	0.000196219
2.386	0.000205449
2.388	0.00021466
2.39	0.00022379
2.392	0.000232791
2.394	0.000241616
2.396	0.000250207
2.398	0.000258513
2.4	0.000266474
2.402	0.00027405
2.404	0.000281192
2.406	0.000287867
2.408	0.000294036
2.41	0.000299676
2.412	0.000304729
2.414	0.000309154
2.416	0.000312868
2.418	0.00031579
2.42	0.000317831
2.422	0.000318889
2.424	0.000318875
2.426	0.000317688
2.428	0.000315237
2.43	0.000311428
2.432	0.000306188
2.434	0.000299447
2.436	0.000291175
2.438	0.000281373
2.44	0.000270074
2.442	0.000257354
2.444	0.000243323
2.446	0.000228124
2.448	0.000211928
2.45	0.000194913
2.452	0.000177302
2.454	0.000159313
2.456	0.000141192
2.458	0.00012317
2.46	0.000105483
2.462	8.8329E-05
2.464	7.18951E-05
2.466	5.63194E-05
2.468	4.17135E-05
2.47	2.81497E-05
2.472	1.56772E-05
2.474	4.31671E-06
2.476	-5.9385E-06
2.478	-1.51204E-05
2.48	-2.32872E-05
2.482	-3.05168E-05
2.484	-3.69001E-05
2.486	-4.25321E-05
2.488	-4.75046E-05
2.49	-5.19046E-05
2.492	-5.57998E-05
2.494	-5.9261E-05
2.496	-6.23552E-05
2.498	-6.51251E-05
2.5	-6.76234E-05
2.502	-6.98832E-05
2.504	-7.19237E-05
2.506	-7.37592E-05
2.508	-7.53754E-05
2.51	-7.67723E-05
2.512	-7.79356E-05
2.514	-7.88605E-05
2.516	-7.95518E-05
2.518	-8.00191E-05
2.52	-8.02718E-05
2.522	-8.0329E-05
2.524	-8.0205E-05
2.526	-7.99142E-05
2.528	-7.94899E-05
2.53	-7.89654E-05
2.532	-7.8379E-05
2.534	-7.77783E-05
2.536	-7.72062E-05
2.538	-7.66961E-05
2.54	-7.62718E-05
2.542	-7.59571E-05
2.544	-7.57521E-05
2.546	-7.5671E-05
2.548	-7.57139E-05
2.55	-7.5876E-05
2.552	-7.61573E-05
2.554	-7.6534E-05
2.556	-7.69821E-05
2.558	-7.74589E-05
2.56	-7.79356E-05
2.562	-7.83743E-05
2.564	-7.87461E-05
2.566	-7.90465E-05
2.568	-7.92563E-05
2.57	-7.9385E-05
2.572	-7.94279E-05
2.574	-7.93897E-05
2.576	-7.92753E-05
2.578	-7.90989E-05
2.58	-7.88844E-05
2.582	-7.86508E-05
2.584	-7.84315E-05
2.586	-7.8236E-05
2.588	-7.80882E-05
2.59	-7.79833E-05
2.592	-7.79166E-05
2.594	-7.78689E-05
2.596	-7.78308E-05
2.598	-7.77878E-05
2.6	-7.77354E-05
2.602	-7.76734E-05
2.604	-7.75828E-05
2.606	-7.74589E-05
2.608	-7.72968E-05
2.61	-7.70822E-05
2.612	-7.68296E-05
2.614	-7.65483E-05
2.616	-7.62574E-05
2.618	-7.59952E-05
2.62	-7.57759E-05
2.622	-7.56234E-05
2.624	-7.55471E-05
2.626	-7.55614E-05
2.628	-7.56567E-05
2.63	-7.58427E-05
2.632	-7.61192E-05
2.634	-7.64815E-05
2.636	-7.69344E-05
2.638	-7.74684E-05
2.64	-7.80644E-05
2.642	-7.87128E-05
2.644	-7.93993E-05
2.646	-8.01192E-05
2.648	-8.08677E-05
2.65	-8.16544E-05
2.652	-8.24791E-05
2.654	-8.33373E-05
2.656	-8.42193E-05
2.658	-8.51013E-05
2.66	-8.5969E-05
2.662	-8.68033E-05
2.664	-8.75852E-05
2.666	-8.83147E-05
2.668	-8.89964E-05
2.67	-8.9621E-05
2.672	-9.02074E-05
2.674	-9.07557E-05
2.676	-9.12706E-05
2.678	-9.17712E-05
2.68	-9.22718E-05
2.682	-9.27914E-05
2.684	-9.33635E-05
2.686	-9.39928E-05
2.688	-9.46889E-05
2.69	-9.54422E-05
2.692	-9.62288E-05
2.694	-9.70155E-05
2.696	-9.77688E-05
2.698	-9.84553E-05
2.7	-9.90417E-05
2.702	-9.94756E-05
2.704	-9.97187E-05
2.706	-9.97139E-05
2.708	-9.94041E-05
2.71	-9.87414E-05
2.712	-9.7683E-05
2.714	-9.6205E-05
2.716	-9.43027E-05
2.718	-9.19857E-05
2.72	-8.92777E-05
2.722	-8.62169E-05
2.724	-8.28605E-05
2.726	-7.92658E-05
2.728	-7.55137E-05
2.73	-7.16996E-05
2.732	-6.79237E-05
2.734	-6.42765E-05
2.736	-6.08534E-05
2.738	-5.77211E-05
2.74	-5.49273E-05
2.742	-5.25006E-05
2.744	-5.04553E-05
2.746	-4.87914E-05
2.748	-4.75128E-05
2.75	-4.66107E-05
2.752	-4.60801E-05
2.754	-4.59061E-05
2.756	-4.60663E-05
2.758	-4.65297E-05
2.76	-4.72567E-05
2.762	-4.8205E-05
2.764	-4.93302E-05
2.766	-5.05888E-05
2.768	-5.19333E-05
2.77	-5.33349E-05
2.772	-5.47557E-05
2.774	-5.61907E-05
2.776	-5.76544E-05
2.778	-5.91895E-05
2.78	-6.08915E-05
2.782	-6.28701E-05
2.784	-6.52682E-05
2.786	-6.82288E-05
2.788	-7.18713E-05
2.79	-7.62861E-05
2.792	-8.15066E-05
2.794	-8.74803E-05
2.796	-9.41025E-05
2.798	-0.000101173
2.8	-0.0001084
2.802	-0.000115437
2.804	-0.000121869
2.806	-0.000127256
2.808	-0.00013117
2.81	-0.000133235
2.812	-0.000133197
2.814	-0.000130927
2.816	-0.000126513
2.818	-0.000120238
2.82	-0.000112605
2.822	-0.000104329
2.824	-9.63051E-05
2.826	-8.95495E-05
2.828	-8.51347E-05
2.83	-8.40906E-05
2.832	-8.72992E-05
2.834	-9.53611E-05
2.836	-0.000108482
2.838	-0.000126379
2.84	-0.000148186
2.842	-0.000172434
2.844	-0.000197068
2.846	-0.000219523
2.848	-0.000236839
2.85	-0.000245864
2.852	-0.000243471
2.854	-0.000226799
2.856	-0.000193564
2.858	-0.000142284
2.86	-7.2534E-05
2.862	1.48877E-05
2.864	0.000117883
2.866	0.000233058
2.868	0.000355847
2.87	0.000480763
2.872	0.000601669
2.874	0.000712277
2.876	0.000806484
2.878	0.000878856
2.88	0.000925054
2.882	0.000942217
2.884	0.000929058
2.886	0.000886103
2.888	0.000815685
2.89	0.000721526
2.892	0.000608725
2.894	0.000483194
2.896	0.000351328
2.898	0.00021939
2.9	9.32872E-05
2.902	-2.1877E-05
2.904	-0.00012205
2.906	-0.000204381
2.908	-0.000267304
2.91	-0.000310493
2.912	-0.000334741
2.914	-0.000341807
2.916	-0.000334174
2.918	-0.000314784
2.92	-0.000286822
2.922	-0.000253449
2.924	-0.000217626
2.926	-0.00018195
2.928	-0.000148544
2.93	-0.000119004
2.932	-9.43695E-05
2.934	-7.51514E-05
2.936	-6.13826E-05
2.938	-5.26865E-05
2.94	-4.83957E-05
2.942	-4.76253E-05
2.944	-4.94017E-05
2.946	-5.27485E-05
2.948	-5.67676E-05
2.95	-6.06913E-05
2.952	-6.39237E-05
2.954	-6.60501E-05
2.956	-6.68367E-05
2.958	-6.62217E-05
2.96	-6.42813E-05
2.962	-6.12157E-05
2.964	-5.7292E-05
2.966	-5.28343E-05
2.968	-4.81621E-05
2.97	-4.35619E-05
2.972	-3.92801E-05
2.974	-3.54913E-05
2.976	-3.23046E-05
2.978	-2.9765E-05
2.98	-2.78641E-05
2.982	-2.65492E-05
2.984	-2.5733E-05
2.986	-2.53039E-05
2.988	-2.51318E-05
2.99	-2.50799E-05
2.992	-2.50136E-05
2.994	-2.4811E-05
2.996	-2.43685E-05
2.998	-2.36062E-05
3	-2.24639E-05
3.002	-2.09006E-05
3.004	-1.88887E-05
3.006	-1.64124E-05
3.008	-1.34684E-05
3.01	-1.0071E-05
3.012	-6.25173E-06
3.014	-2.0635E-06
3.016	2.42484E-06
3.018	7.13325E-06
3.02	1.19795E-05
3.022	1.68853E-05
3.024	2.17826E-05
3.026	2.66145E-05
3.028	3.13368E-05
3.03	3.59194E-05
3.032	4.0349E-05
3.034	4.46336E-05
3.036	4.88057E-05
3.038	5.29201E-05
3.04	5.70632E-05
3.042	6.13302E-05
3.044	6.58308E-05
3.046	7.06651E-05
3.048	7.59237E-05
3.05	8.16925E-05
3.052	8.80334E-05
3.054	9.4975E-05
3.056	0.000102551
3.058	0.000110751
3.06	0.000119542
3.062	0.000128863
3.064	0.000138622
3.066	0.000148701
3.068	0.000158975
3.07	0.000169321
3.072	0.000179619
3.074	0.000189769
3.076	0.000199695
3.078	0.000209325
3.08	0.000218622
3.082	0.000227547
3.084	0.000236091
3.086	0.000244257
3.088	0.000252052
3.09	0.000259499
3.092	0.000266617
3.094	0.000273397
3.096	0.000279819
3.098	0.000285831
3.1	0.000291347
3.102	0.000296257
3.104	0.000300434
3.106	0.000303723
3.108	0.000305974
3.11	0.000307027
3.112	0.000306718
3.114	0.000304901
3.116	0.000301449
3.118	0.000296272
3.12	0.000289321
3.122	0.000280605
3.124	0.000270188
3.126	0.000258198
3.128	0.000244791
3.13	0.000230179
3.132	0.000214589
3.134	0.000198274
3.136	0.000181497
3.138	0.000164529
3.14	0.000147623
3.142	0.000131013
3.144	0.000114908
3.146	9.94613E-05
3.148	8.47914E-05
3.15	7.09607E-05
3.152	5.79976E-05
3.154	4.59008E-05
3.156	3.46479E-05
3.158	2.41979E-05
3.16	1.45015E-05
3.162	5.50274E-06
3.164	-2.85726E-06
3.166	-1.06327E-05
3.168	-1.78684E-05
3.17	-2.4594E-05
3.172	-3.08229E-05
3.174	-3.65549E-05
3.176	-4.17821E-05
3.178	-4.64987E-05
3.18	-5.0708E-05
3.182	-5.44172E-05
3.184	-5.76591E-05
3.186	-6.04625E-05
3.188	-6.28701E-05
3.19	-6.49249E-05
3.192	-6.66698E-05
3.194	-6.81669E-05
3.196	-6.94636E-05
3.198	-7.06317E-05
3.2	-7.17282E-05
3.202	-7.2801E-05
3.204	-7.3888E-05
3.206	-7.50083E-05
3.208	-7.61669E-05
3.21	-7.73445E-05
3.212	-7.85221E-05
3.214	-7.9671E-05
3.216	-8.0758E-05
3.218	-8.17592E-05
3.22	-8.26317E-05
3.222	-8.33325E-05
3.224	-8.38236E-05
3.226	-8.40667E-05
3.228	-8.40429E-05
3.23	-8.37426E-05
3.232	-8.318E-05
3.234	-8.2379E-05
3.236	-8.13778E-05
3.238	-8.02098E-05
3.24	-7.89225E-05
3.242	-7.75638E-05
3.244	-7.61812E-05
3.246	-7.48224E-05
3.248	-7.35447E-05
3.25	-7.241E-05
3.252	-7.14517E-05
3.254	-7.0708E-05
3.256	-7.01931E-05
3.258	-6.99166E-05
3.26	-6.98689E-05
3.262	-7.00358E-05
3.264	-7.04029E-05
3.266	-7.09511E-05
3.268	-7.16615E-05
3.27	-7.25006E-05
3.272	-7.34255E-05
3.274	-7.43886E-05
3.276	-7.53421E-05
3.278	-7.62384E-05
3.28	-7.7025E-05
3.282	-7.7683E-05
3.284	-7.81788E-05
3.286	-7.8503E-05
3.288	-7.86412E-05
3.29	-7.8584E-05
3.292	-7.83361E-05
3.294	-7.7907E-05
3.296	-7.73254E-05
3.298	-7.66246E-05
3.3	-7.58665E-05
3.302	-7.50894E-05
3.304	-7.43456E-05
3.306	-7.36782E-05
3.308	-7.31108E-05
3.31	-7.2677E-05
3.312	-7.23909E-05
3.314	-7.2267E-05
3.316	-7.23099E-05
3.318	-7.25197E-05
3.32	-7.28868E-05
3.322	-7.33874E-05
3.324	-7.39833E-05
3.326	-7.4646E-05
3.328	-7.53421E-05
3.33	-7.60524E-05
3.332	-7.67676E-05
3.334	-7.74875E-05
3.336	-7.82217E-05
3.338	-7.89797E-05
3.34	-7.97712E-05
3.342	-8.0615E-05
3.344	-8.15209E-05
3.346	-8.25125E-05
3.348	-8.36091E-05
3.35	-8.48248E-05
3.352	-8.61645E-05
3.354	-8.76234E-05
3.356	-8.91824E-05
3.358	-9.07986E-05
3.36	-9.24243E-05
3.362	-9.40119E-05
3.364	-9.55089E-05
3.366	-9.6882E-05
3.368	-9.8093E-05
3.37	-9.91132E-05
3.372	-9.99285E-05
3.374	-0.00010052
3.376	-0.000100896
3.378	-0.000101082
3.38	-0.000101116
3.382	-0.000101049
3.384	-0.000100944
3.386	-0.000100858
3.388	-0.000100849
3.39	-0.000100954
3.392	-0.000101187
3.394	-0.000101564
3.396	-0.000102079
3.398	-0.000102713
3.4	-0.000103437
3.402	-0.00010421
3.404	-0.000104973
3.406	-0.000105645
3.408	-0.00010615
3.41	-0.000106408
3.412	-0.000106341
3.414	-0.000105902
3.416	-0.000105054
3.418	-0.000103776
3.42	-0.000102069
3.422	-9.99619E-05
3.424	-9.74827E-05
3.426	-9.46841E-05
3.428	-9.16424E-05
3.43	-8.84386E-05
3.432	-8.51728E-05
3.434	-8.19356E-05
3.436	-7.88129E-05
3.438	-7.5876E-05
3.44	-7.31633E-05
3.442	-7.07128E-05
3.444	-6.8534E-05
3.446	-6.6646E-05
3.448	-6.50536E-05
3.45	-6.37616E-05
3.452	-6.27795E-05
3.454	-6.2112E-05
3.456	-6.17545E-05
3.458	-6.1702E-05
3.46	-6.19261E-05
3.462	-6.24172E-05
3.464	-6.31371E-05
3.466	-6.40572E-05
3.468	-6.51442E-05
3.47	-6.63456E-05
3.472	-6.76234E-05
3.474	-6.89487E-05
3.476	-7.03027E-05
3.478	-7.17092E-05
3.48	-7.32205E-05
3.482	-7.49321E-05
3.484	-7.69583E-05
3.486	-7.94327E-05
3.488	-8.24839E-05
3.49	-8.62169E-05
3.492	-9.07032E-05
3.494	-9.59523E-05
3.496	-0.000101912
3.498	-0.000108443
3.5	-0.000115328
3.502	-0.000122269
3.504	-0.000128887
3.506	-0.000134751
3.508	-0.000139414
3.51	-0.000142455
3.512	-0.000143538
3.514	-0.000142431
3.516	-0.000139094
3.518	-0.000133673
3.52	-0.000126536
3.522	-0.000118274
3.524	-0.000109692
3.526	-0.000101754
3.528	-9.55518E-05
3.53	-9.21907E-05
3.532	-9.26913E-05
3.534	-9.78784E-05
3.536	-0.000108234
3.538	-0.0001238
3.54	-0.000144067
3.542	-0.000167919
3.544	-0.000193621
3.546	-0.000218861
3.548	-0.000240839
3.55	-0.000256415
3.552	-0.000262336
3.554	-0.000255447
3.556	-0.000233001
3.558	-0.000192915
3.56	-0.000134045
3.562	-5.63909E-05
3.564	3.87433E-05
3.566	0.000148715
3.568	0.000269597
3.57	0.000396353
3.572	0.000523099
3.574	0.00064348
3.576	0.000751085
3.578	0.000839952
3.58	0.000904839
3.582	0.000941836
3.584	0.000948653
3.586	0.000924625
3.588	0.000870989
3.59	0.00079056
3.592	0.000687771
3.594	0.000568057
3.596	0.000437631
3.598	0.000302975
3.6	0.000170369
3.602	4.55414E-05
3.604	-6.66794E-05
3.606	-0.000162589
3.608	-0.000239733
3.61	-0.000296963
3.612	-0.00033435
3.614	-0.000353068
3.616	-0.00035517
3.618	-0.00034338
3.62	-0.000320791
3.622	-0.000290665
3.624	-0.000256167
3.626	-0.000220191
3.628	-0.000185235
3.63	-0.000153273
3.632	-0.000125726
3.634	-0.000103442
3.636	-8.67509E-05
3.638	-7.54994E-05
3.64	-6.91585E-05
3.642	-6.69321E-05
3.644	-6.78617E-05
3.646	-7.09368E-05
3.648	-7.51752E-05
3.65	-7.97187E-05
3.652	-8.38474E-05
3.654	-8.70274E-05
3.656	-8.89201E-05
3.658	-8.93778E-05
3.66	-8.84005E-05
3.662	-8.61406E-05
3.664	-8.28415E-05
3.666	-7.88176E-05
3.668	-7.43838E-05
3.67	-6.98451E-05
3.672	-6.54541E-05
3.674	-6.14017E-05
3.676	-5.77974E-05
3.678	-5.46889E-05
3.68	-5.20715E-05
3.682	-4.98737E-05
3.684	-0.000048
3.686	-4.63352E-05
3.688	-4.47414E-05
3.69	-4.30918E-05
3.692	-4.12744E-05
3.694	-3.92057E-05
3.696	-3.68372E-05
3.698	-3.41564E-05
3.7	-3.11809E-05
3.702	-2.79528E-05
3.704	-2.45249E-05
3.706	-2.0954E-05
3.708	-1.72958E-05
3.71	-1.36029E-05
3.712	-9.92324E-06
3.714	-6.29702E-06
3.716	-2.75743E-06
3.718	6.78522E-07
3.72	4.01111E-06
3.722	7.26055E-06
3.724	1.04667E-05
3.726	1.3681E-05
3.728	1.69659E-05
3.73	2.03847E-05
3.732	2.40014E-05
3.734	2.78794E-05
3.736	3.2082E-05
3.738	3.66722E-05
3.74	4.17087E-05
3.742	4.7242E-05
3.744	5.33063E-05
3.746	5.99142E-05
3.748	6.70656E-05
3.75	7.47271E-05
3.752	8.28558E-05
3.754	9.13993E-05
3.756	0.000100305
3.758	0.000109507
3.76	0.000118942
3.762	0.000128539
3.764	0.000138222
3.766	0.000147919
3.768	0.000157569
3.77	0.000167113
3.772	0.00017652
3.774	0.000185759
3.776	0.000194818
3.778	0.000203695
3.78	0.000212377
3.782	0.000220853
3.784	0.000229125
3.786	0.000237178
3.788	0.000245006
3.79	0.000252605
3.792	0.000259962
3.794	0.000267051
3.796	0.000273831
3.798	0.000280243
3.8	0.000286203
3.802	0.000291609
3.804	0.000296358
3.806	0.000300329
3.808	0.000303399
3.81	0.00030544
3.812	0.000306312
3.814	0.000305888
3.816	0.000304038
3.818	0.000300663
3.82	0.000295681
3.822	0.000289054
3.824	0.000280787
3.826	0.000270923
3.828	0.000259542
3.83	0.000246756
3.832	0.00023271
3.834	0.000217583
3.836	0.000201569
3.838	0.000184892
3.84	0.000167795
3.842	0.000150522
3.844	0.000133321
3.846	0.00011641
3.848	0.0001
3.85	8.42574E-05
3.852	6.93397E-05
3.854	5.53564E-05
3.856	4.23938E-05
3.858	3.05044E-05
3.86	1.97006E-05
3.862	9.95662E-06
3.864	1.21025E-06
3.866	-6.62932E-06
3.868	-1.36706E-05
3.87	-2.00286E-05
3.872	-2.58136E-05
3.874	-3.11213E-05
3.876	-3.60343E-05
3.878	-4.0615E-05
3.88	-4.49097E-05
3.882	-4.8944E-05
3.884	-5.27342E-05
3.886	-5.62622E-05
3.888	-5.95042E-05
3.89	-6.24219E-05
3.892	-6.49774E-05
3.894	-6.71371E-05
3.896	-6.88868E-05
3.898	-7.02265E-05
3.9	-7.11847E-05
3.902	-7.1795E-05
3.904	-7.21097E-05
3.906	-7.21812E-05
3.908	-7.2081E-05
3.91	-7.18617E-05
3.912	-7.15948E-05
3.914	-7.13516E-05
3.916	-7.118E-05
3.918	-7.11371E-05
3.92	-7.12372E-05
3.922	-7.14994E-05
3.924	-7.18951E-05
3.926	-7.23957E-05
3.928	-7.29583E-05
3.93	-7.35352E-05
3.932	-7.40834E-05
3.934	-7.4565E-05
3.936	-7.49321E-05
3.938	-7.51609E-05
3.94	-7.52181E-05
3.942	-7.50799E-05
3.944	-7.47461E-05
3.946	-7.42217E-05
3.948	-7.35352E-05
3.95	-7.27199E-05
3.952	-7.18045E-05
3.954	-7.08367E-05
3.956	-6.98355E-05
3.958	-6.88248E-05
3.96	-6.78188E-05
3.962	-6.68462E-05
3.964	-6.59261E-05
3.966	-6.50727E-05
3.968	-6.43147E-05
3.97	-6.3671E-05
3.972	-6.31466E-05
3.974	-6.27604E-05
3.976	-6.2503E-05
3.978	-6.23838E-05
3.98	-6.23981E-05
3.982	-6.25507E-05
3.984	-6.28367E-05
3.986	-6.32372E-05
3.988	-6.3733E-05
3.99	-6.42861E-05
3.992	-6.48534E-05
3.994	-6.53969E-05
3.996	-6.58832E-05
3.998	-6.62884E-05
4	-6.66079E-05
4.002	-6.68319E-05
4.004	-6.69654E-05
4.006	-6.70322E-05
4.008	-6.70369E-05
4.01	-6.70131E-05
4.012	-6.6994E-05
4.014	-6.70226E-05
4.016	-6.71514E-05
4.018	-6.74136E-05
4.02	-6.78427E-05
4.022	-6.84577E-05
4.024	-6.92586E-05
4.026	-7.02217E-05
4.028	-7.13325E-05
4.03	-7.25626E-05
4.032	-7.38832E-05
4.034	-7.52658E-05
4.036	-7.66818E-05
4.038	-7.81025E-05
4.04	-7.95042E-05
4.042	-8.08534E-05
4.044	-8.21406E-05
4.046	-8.33611E-05
4.048	-8.45244E-05
4.05	-8.56448E-05
4.052	-8.67509E-05
4.054	-8.78474E-05
4.056	-8.89583E-05
4.058	-9.00739E-05
4.06	-9.12038E-05
4.062	-9.23433E-05
4.064	-9.34827E-05
4.066	-9.46126E-05
4.068	-9.57235E-05
4.07	-9.67867E-05
4.072	-9.77783E-05
4.074	-9.86555E-05
4.076	-9.9385E-05
4.078	-9.99428E-05
4.08	-0.000100315
4.082	-0.000100501
4.084	-0.000100515
4.086	-0.000100381
4.088	-0.000100133
4.09	-9.97998E-05
4.092	-9.94231E-05
4.094	-9.90369E-05
4.096	-9.86841E-05
4.098	-9.84219E-05
4.1	-9.82837E-05
4.102	-9.83123E-05
4.104	-9.85221E-05
4.106	-9.89178E-05
4.108	-9.94946E-05
4.11	-0.000100229
4.112	-0.000101106
4.114	-0.000102088
4.116	-0.000103147
4.118	-0.000104238
4.12	-0.000105306
4.122	-0.000106293
4.124	-0.000107108
4.126	-0.000107681
4.128	-0.000107919
4.13	-0.000107757
4.132	-0.000107128
4.134	-0.000106002
4.136	-0.000104343
4.138	-0.000102155
4.14	-9.94517E-05
4.142	-9.62861E-05
4.144	-9.27294E-05
4.146	-8.88963E-05
4.148	-8.49106E-05
4.15	-8.09201E-05
4.152	-7.70727E-05
4.154	-7.3497E-05
4.156	-7.03123E-05
4.158	-6.76043E-05
4.16	-6.5435E-05
4.162	-6.38427E-05
4.164	-6.28367E-05
4.166	-6.24124E-05
4.168	-6.25459E-05
4.17	-6.318E-05
4.172	-6.42479E-05
4.174	-6.56544E-05
4.176	-6.73039E-05
4.178	-6.91013E-05
4.18	-7.09416E-05
4.182	-7.2758E-05
4.184	-7.44791E-05
4.186	-7.60715E-05
4.188	-7.75161E-05
4.19	-7.88272E-05
4.192	-8.00572E-05
4.194	-8.12968E-05
4.196	-8.26698E-05
4.198	-8.43337E-05
4.2	-8.64553E-05
4.202	-8.91919E-05
4.204	-9.2677E-05
4.206	-9.69821E-05
4.208	-0.000102136
4.21	-0.000108067
4.212	-0.000114641
4.214	-0.000121631
4.216	-0.000128734
4.218	-0.000135585
4.22	-0.000141774
4.222	-0.000146856
4.224	-0.000150436
4.226	-0.000152153
4.228	-0.00015179
4.23	-0.000149273
4.232	-0.000144725
4.234	-0.000138474
4.236	-0.000131085
4.238	-0.00012329
4.24	-0.000116019
4.242	-0.000110284
4.244	-0.000107137
4.246	-0.000107552
4.248	-0.000112329
4.25	-0.00012195
4.252	-0.000136482
4.254	-0.000155476
4.256	-0.000177893
4.258	-0.000202083
4.26	-0.00022584
4.262	-0.000246451
4.264	-0.000260882
4.266	-0.000265955
4.268	-0.000258574
4.27	-0.000236019
4.272	-0.0001962
4.274	-0.000137907
4.276	-6.10489E-05
4.278	3.32119E-05
4.28	0.000142393
4.282	0.000262732
4.284	0.000389349
4.286	0.00051652
4.288	0.000637902
4.29	0.000747271
4.292	0.000838522
4.294	0.000906508
4.296	0.000947175
4.298	0.000957998
4.3	0.000938164
4.302	0.000888725
4.304	0.0008123
4.306	0.000713039
4.308	0.000596281
4.31	0.000468176
4.312	0.000335099
4.314	0.000203352
4.316	7.87032E-05
4.318	-3.39185E-05
4.32	-0.000130698
4.322	-0.000209054
4.324	-0.000267681
4.326	-0.000306513
4.328	-0.000326584
4.33	-0.000329859
4.332	-0.000318965
4.334	-0.000296973
4.336	-0.000267137
4.338	-0.000232634
4.34	-0.000196415
4.342	-0.000161015
4.344	-0.000128462
4.346	-0.000100243
4.348	-7.72634E-05
4.35	-5.99046E-05
4.352	-4.80667E-05
4.354	-4.1272E-05
4.356	-3.87495E-05
4.358	-3.9558E-05
4.36	-4.26851E-05
4.362	-4.71452E-05
4.364	-5.20524E-05
4.366	-5.66722E-05
4.368	-6.04529E-05
4.37	-6.30274E-05
4.372	-6.42145E-05
4.374	-6.39905E-05
4.376	-6.24696E-05
4.378	-5.98617E-05
4.38	-5.64434E-05
4.382	-5.25292E-05
4.384	-4.84195E-05
4.386	-4.43857E-05
4.388	-4.06384E-05
4.39	-3.73268E-05
4.392	-3.4534E-05
4.394	-3.22822E-05
4.396	-3.05473E-05
4.398	-2.92691E-05
4.4	-2.83628E-05
4.402	-2.77278E-05
4.404	-2.72558E-05
4.406	-2.6841E-05
4.408	-2.63871E-05
4.41	-2.58155E-05
4.412	-2.50694E-05
4.414	-2.41139E-05
4.416	-2.29335E-05
4.418	-2.15223E-05
4.42	-1.98784E-05
4.422	-1.79986E-05
4.424	-1.58737E-05
4.426	-1.34956E-05
4.428	-1.08544E-05
4.43	-7.94756E-06
4.432	-4.77569E-06
4.434	-1.34436E-06
4.436	2.33983E-06
4.438	6.27032E-06
4.44	1.04415E-05
4.442	1.48448E-05
4.444	1.94684E-05
4.446	2.42956E-05
4.448	2.93054E-05
4.45	3.44782E-05
4.452	3.98021E-05
4.454	4.52758E-05
4.456	5.0913E-05
4.458	5.67294E-05
4.46	6.27604E-05
4.462	6.90346E-05
4.464	7.55709E-05
4.466	8.23933E-05
4.468	8.95066E-05
4.47	9.69249E-05
4.472	0.000104644
4.474	0.000112667
4.476	0.000120973
4.478	0.000129545
4.48	0.000138331
4.482	0.00014729
4.484	0.000156358
4.486	0.000165473
4.488	0.000174603
4.49	0.0001837
4.492	0.000192749
4.494	0.000201721
4.496	0.000210622
4.498	0.000219437
4.5	0.000228157
4.502	0.000236787
4.504	0.000245311
4.506	0.000253712
4.508	0.000261955
4.51	0.000269988
4.512	0.000277721
4.514	0.00028503
4.516	0.000291766
4.518	0.000297764
4.52	0.000302837
4.522	0.000306813
4.524	0.000309521
4.526	0.000310808
4.528	0.000310546
4.53	0.000308639
4.532	0.00030502
4.534	0.000299662
4.536	0.000292591
4.538	0.000283876
4.54	0.000273631
4.542	0.000262017
4.544	0.000249201
4.546	0.00023539
4.548	0.000220787
4.55	0.000205588
4.552	0.000189998
4.554	0.000174212
4.556	0.000158417
4.558	0.000142775
4.56	0.000127437
4.562	0.00011252
4.564	9.81216E-05
4.566	8.43051E-05
4.568	7.11323E-05
4.57	5.86317E-05
4.572	4.68505E-05
4.574	3.58107E-05
4.576	2.55371E-05
4.578	1.60453E-05
4.58	7.33969E-06
4.582	-5.83886E-07
4.584	-7.73683E-06
4.586	-1.4134E-05
4.588	-1.97926E-05
4.59	-2.47328E-05
4.592	-2.89812E-05
4.594	-3.2575E-05
4.596	-3.55642E-05
4.598	-3.80114E-05
4.6	-3.99895E-05
4.602	-4.15719E-05
4.604	-4.28315E-05
4.606	-4.38341E-05
4.608	-4.46384E-05
4.61	-4.52996E-05
4.612	-4.58694E-05
4.614	-4.63981E-05
4.616	-4.69306E-05
4.618	-4.75056E-05
4.62	-4.81478E-05
4.622	-4.88677E-05
4.624	-4.96591E-05
4.626	-5.05077E-05
4.628	-5.13993E-05
4.63	-5.23004E-05
4.632	-5.31871E-05
4.634	-5.4031E-05
4.636	-5.47986E-05
4.638	-5.54708E-05
4.64	-5.60095E-05
4.642	-5.63957E-05
4.644	-5.66293E-05
4.646	-5.67151E-05
4.648	-5.66818E-05
4.65	-5.65769E-05
4.652	-5.64338E-05
4.654	-5.63051E-05
4.656	-5.62241E-05
4.658	-5.62193E-05
4.66	-5.63147E-05
4.662	-5.65244E-05
4.664	-5.68677E-05
4.666	-5.73397E-05
4.668	-5.79499E-05
4.67	-5.86746E-05
4.672	-5.94946E-05
4.674	-6.03862E-05
4.676	-6.13063E-05
4.678	-6.2236E-05
4.68	-6.31561E-05
4.682	-6.40524E-05
4.684	-6.49344E-05
4.686	-6.58021E-05
4.688	-6.66603E-05
4.69	-6.75185E-05
4.692	-6.83909E-05
4.694	-6.92872E-05
4.696	-7.02217E-05
4.698	-7.12229E-05
4.7	-7.23004E-05
4.702	-7.34732E-05
4.704	-7.47366E-05
4.706	-7.6081E-05
4.708	-7.74827E-05
4.71	-7.89273E-05
4.712	-8.03766E-05
4.714	-8.18164E-05
4.716	-8.32229E-05
4.718	-8.45816E-05
4.72	-8.58689E-05
4.722	-8.70656E-05
4.724	-8.81478E-05
4.726	-8.90965E-05
4.728	-8.98975E-05
4.73	-9.05507E-05
4.732	-9.10608E-05
4.734	-9.14422E-05
4.736	-9.17187E-05
4.738	-9.18999E-05
4.74	-0.000092
4.742	-9.20286E-05
4.744	-0.000092
4.746	-9.1938E-05
4.748	-9.18522E-05
4.75	-9.17759E-05
4.752	-9.17235E-05
4.754	-9.17187E-05
4.756	-9.17664E-05
4.758	-9.1876E-05
4.76	-9.20524E-05
4.762	-9.23147E-05
4.764	-9.26675E-05
4.766	-9.31251E-05
4.768	-9.36925E-05
4.77	-9.43695E-05
4.772	-9.51371E-05
4.774	-9.59714E-05
4.776	-9.68296E-05
4.778	-9.76687E-05
4.78	-9.84553E-05
4.782	-9.91561E-05
4.784	-9.97473E-05
4.786	-0.000100205
4.788	-0.000100515
4.79	-0.000100672
4.792	-0.000100687
4.794	-0.000100577
4.796	-0.000100386
4.798	-0.000100157
4.8	-9.99476E-05
4.802	-9.98093E-05
4.804	-9.9795E-05
4.806	-9.99285E-05
4.808	-0.000100224
4.81	-0.000100696
4.812	-0.00010134
4.814	-0.000102141
4.816	-0.000103089
4.818	-0.000104148
4.82	-0.000105282
4.822	-0.000106431
4.824	-0.000107523
4.826	-0.000108477
4.828	-0.000109206
4.83	-0.000109631
4.832	-0.000109673
4.834	-0.000109254
4.836	-0.000108324
4.838	-0.000106827
4.84	-0.000104734
4.842	-0.000102041
4.844	-9.877E-05
4.846	-9.49797E-05
4.848	-9.07604E-05
4.85	-8.62455E-05
4.852	-8.15638E-05
4.854	-7.68677E-05
4.856	-7.22908E-05
4.858	-6.79666E-05
4.86	-6.40048E-05
4.862	-6.04958E-05
4.864	-5.75066E-05
4.866	-5.50846E-05
4.868	-5.32348E-05
4.87	-5.19571E-05
4.872	-5.12133E-05
4.874	-5.09511E-05
4.876	-5.11228E-05
4.878	-5.16567E-05
4.88	-5.25101E-05
4.882	-5.36305E-05
4.884	-5.49702E-05
4.886	-5.64815E-05
4.888	-5.81263E-05
4.89	-5.98522E-05
4.892	-6.16257E-05
4.894	-6.34184E-05
4.896	-6.52348E-05
4.898	-6.71037E-05
4.9	-6.90727E-05
4.902	-7.12181E-05
4.904	-7.36353E-05
4.906	-7.64195E-05
4.908	-7.96663E-05
4.91	-8.34565E-05
4.912	-8.7857E-05
4.914	-9.28725E-05
4.916	-9.84791E-05
4.918	-0.000104563
4.92	-0.000110946
4.922	-0.000117359
4.924	-0.000123476
4.926	-0.000128915
4.928	-0.000133278
4.93	-0.000136181
4.932	-0.000137297
4.934	-0.0001364
4.936	-0.000133387
4.938	-0.000128334
4.94	-0.000121507
4.942	-0.000113392
4.944	-0.000104682
4.946	-9.6267E-05
4.948	-8.91728E-05
4.95	-8.44815E-05
4.952	-8.32563E-05
4.954	-8.63838E-05
4.956	-9.44887E-05
4.958	-0.0001078
4.96	-0.000126045
4.962	-0.000148396
4.964	-0.000173387
4.966	-0.00019898
4.968	-0.00022257
4.97	-0.000241154
4.972	-0.000251485
4.974	-0.000250322
4.976	-0.000234684
4.978	-0.000202155
4.98	-0.000151151
4.982	-8.11538E-05
4.984	7.11609E-06
4.986	0.0001116
4.988	0.00022892
4.99	0.000354503
4.992	0.000482765
4.994	0.000607533
4.996	0.000722336
4.998	0.000820834
5	0.000897497
5.002	0.000947795
5.004	0.000968629
5.006	0.000958617
5.008	0.000918236
5.01	0.000849631
5.012	0.000756567
5.014	0.0006441
5.016	0.000518141
5.018	0.000385182
5.02	0.00025158
5.022	0.000123366
5.024	5.80215E-06
5.026	-9.69106E-05
5.028	-0.000181778
5.03	-0.000247113
5.032	-0.000292501
5.034	-0.000318679
5.036	-0.000327361
5.038	-0.000320996
5.04	-0.000302546
5.042	-0.000275209
5.044	-0.000242198
5.046	-0.000206541
5.048	-0.000170899
5.05	-0.000137468
5.052	-0.00010789
5.054	-8.32372E-05
5.056	-6.40238E-05
5.058	-5.02789E-05
5.06	-4.16234E-05
5.062	-3.73831E-05
5.064	-3.66865E-05
5.066	-3.85731E-05
5.068	-4.2083E-05
5.07	-4.63299E-05
5.072	-5.05554E-05
5.074	-5.4174E-05
5.076	-5.67723E-05
5.078	-5.81406E-05
5.08	-5.82217E-05
5.082	-5.71156E-05
5.084	-5.50131E-05
5.086	-5.21621E-05
5.088	-4.88534E-05
5.09	-4.53397E-05
5.092	-4.18613E-05
5.094	-3.86017E-05
5.096	-3.56939E-05
5.098	-3.32138E-05
5.1	-3.11828E-05
5.102	-2.95738E-05
5.104	-2.83194E-05
5.106	-2.7323E-05
5.108	-2.64768E-05
5.11	-2.56734E-05
5.112	-2.482E-05
5.114	-2.38446E-05
5.116	-2.26985E-05
5.118	-2.13516E-05
5.12	-1.97893E-05
5.122	-1.80062E-05
5.124	-1.60029E-05
5.126	-1.37883E-05
5.128	-1.13769E-05
5.13	-8.78903E-06
5.132	-6.04911E-06
5.134	-3.17979E-06
5.136	-1.9867E-07
5.138	2.88596E-06
5.14	6.07437E-06
5.142	9.37259E-06
5.144	1.279E-05
5.146	1.63342E-05
5.148	2.00129E-05
5.15	2.38365E-05
5.152	2.78198E-05
5.154	3.19871E-05
5.156	3.63723E-05
5.158	4.10141E-05
5.16	4.59547E-05
5.162	5.12324E-05
5.164	5.68772E-05
5.166	6.29225E-05
5.168	6.93826E-05
5.17	7.62765E-05
5.172	8.36281E-05
5.174	9.14374E-05
5.176	9.97044E-05
5.178	0.000108415
5.18	0.000117526
5.182	0.000126985
5.184	0.000136715
5.186	0.000146641
5.188	0.000156677
5.19	0.000166737
5.192	0.000176744
5.194	0.000186613
5.196	0.000196272
5.198	0.000205659
5.2	0.000214718
5.202	0.000223428
5.204	0.000231766
5.206	0.000239752
5.208	0.000247414
5.21	0.00025477
5.212	0.000261859
5.214	0.000268687
5.216	0.000275247
5.218	0.000281516
5.22	0.000287447
5.222	0.000292954
5.224	0.00029795
5.226	0.000302308
5.228	0.000305878
5.23	0.000308491
5.232	0.000309964
5.234	0.000310122
5.236	0.000308801
5.238	0.000305874
5.24	0.000301249
5.242	0.000294884
5.244	0.000286775
5.246	0.000276968
5.248	0.000265559
5.25	0.000252677
5.252	0.000238498
5.254	0.000223232
5.256	0.000207128
5.258	0.000190422
5.26	0.000173373
5.262	0.000156219
5.264	0.000139166
5.266	0.000122398
5.268	0.000106083
5.27	9.03504E-05
5.272	7.53182E-05
5.274	6.10727E-05
5.276	4.76853E-05
5.278	3.521E-05
5.28	2.36653E-05
5.282	1.30603E-05
5.284	3.38579E-06
5.286	-5.37735E-06
5.288	-1.32558E-05
5.29	-2.02822E-05
5.292	-2.65001E-05
5.294	-3.19623E-05
5.296	-3.67371E-05
5.298	-4.09011E-05
5.3	-4.45383E-05
5.302	-4.7733E-05
5.304	-5.05602E-05
5.306	-5.3087E-05
5.308	-5.53659E-05
5.31	-5.74493E-05
5.312	-5.93659E-05
5.314	-6.11442E-05
5.316	-6.28129E-05
5.318	-6.43766E-05
5.32	-6.5826E-05
5.322	-6.71514E-05
5.324	-6.83242E-05
5.326	-6.93159E-05
5.328	-7.01025E-05
5.33	-7.06698E-05
5.332	-7.10036E-05
5.334	-7.11132E-05
5.336	-7.10036E-05
5.338	-7.06841E-05
5.34	-7.01692E-05
5.342	-6.94779E-05
5.344	-6.86389E-05
5.346	-6.76853E-05
5.348	-6.66603E-05
5.35	-6.56114E-05
5.352	-6.45864E-05
5.354	-6.36138E-05
5.356	-6.27271E-05
5.358	-6.19309E-05
5.36	-6.12491E-05
5.362	-6.0677E-05
5.364	-6.02241E-05
5.366	-5.98903E-05
5.368	-5.9671E-05
5.37	-5.95471E-05
5.372	-5.95089E-05
5.374	-5.95185E-05
5.376	-5.95614E-05
5.378	-5.96091E-05
5.38	-5.96472E-05
5.382	-5.96758E-05
5.384	-5.96901E-05
5.386	-5.96901E-05
5.388	-5.9671E-05
5.39	-5.96377E-05
5.392	-5.95852E-05
5.394	-5.95137E-05
5.396	-5.94327E-05
5.398	-5.93659E-05
5.4	-5.93421E-05
5.402	-5.93802E-05
5.404	-5.95089E-05
5.406	-5.97473E-05
5.408	-6.01097E-05
5.41	-6.06055E-05
5.412	-6.12396E-05
5.414	-6.20215E-05
5.416	-6.29464E-05
5.418	-0.000064
5.42	-6.51633E-05
5.422	-6.63886E-05
5.424	-6.76424E-05
5.426	-6.88772E-05
5.428	-7.00453E-05
5.43	-7.11228E-05
5.432	-7.20906E-05
5.434	-7.29392E-05
5.436	-7.36591E-05
5.438	-7.42598E-05
5.44	-7.47366E-05
5.442	-7.51037E-05
5.444	-7.53707E-05
5.446	-7.55709E-05
5.448	-7.57282E-05
5.45	-7.58808E-05
5.452	-7.6062E-05
5.454	-7.63099E-05
5.456	-7.66484E-05
5.458	-7.70965E-05
5.46	-7.76639E-05
5.462	-7.83743E-05
5.464	-7.92324E-05
5.466	-8.02479E-05
5.468	-8.14112E-05
5.47	-8.27175E-05
5.472	-8.41287E-05
5.474	-8.5621E-05
5.476	-8.71561E-05
5.478	-8.87008E-05
5.48	-9.02312E-05
5.482	-9.17426E-05
5.484	-9.323E-05
5.486	-9.46841E-05
5.488	-9.61144E-05
5.49	-9.75161E-05
5.492	-9.88749E-05
5.494	-0.0001002
5.496	-0.000101483
5.498	-0.000102718
5.5	-0.000103909
5.502	-0.000105049
5.504	-0.000106117
5.506	-0.000107108
5.508	-0.000108
5.51	-0.000108787
5.512	-0.000109468
5.514	-0.00011005
5.516	-0.000110551
5.518	-0.000110989
5.52	-0.000111385
5.522	-0.000111738
5.524	-0.000112043
5.526	-0.000112296
5.528	-0.000112462
5.53	-0.000112524
5.532	-0.000112443
5.534	-0.000112191
5.536	-0.000111714
5.538	-0.00011097
5.54	-0.000109907
5.542	-0.000108491
5.544	-0.000106689
5.546	-0.00010451
5.548	-0.000101964
5.55	-9.91037E-05
5.552	-9.59762E-05
5.554	-9.26627E-05
5.556	-8.92348E-05
5.558	-8.5764E-05
5.56	-8.23361E-05
5.562	-7.90322E-05
5.564	-7.59285E-05
5.566	-7.30918E-05
5.568	-7.05936E-05
5.57	-6.84768E-05
5.572	-6.67747E-05
5.574	-6.55066E-05
5.576	-6.46865E-05
5.578	-6.43147E-05
5.58	-6.43719E-05
5.582	-6.48486E-05
5.584	-6.5702E-05
5.586	-6.68749E-05
5.588	-6.83051E-05
5.59	-6.99023E-05
5.592	-7.159E-05
5.594	-7.32968E-05
5.596	-7.49797E-05
5.598	-7.66293E-05
5.6	-7.82741E-05
5.602	-7.99762E-05
5.604	-8.18308E-05
5.606	-8.39571E-05
5.608	-8.64791E-05
5.61	-8.95256E-05
5.612	-9.32014E-05
5.614	-9.75876E-05
5.616	-0.000102689
5.618	-0.000108448
5.62	-0.000114708
5.622	-0.000121221
5.624	-0.000127652
5.626	-0.000133607
5.628	-0.000138641
5.63	-0.000142341
5.632	-0.000144315
5.634	-0.000144281
5.636	-0.000142088
5.638	-0.000137769
5.64	-0.000131561
5.642	-0.000123928
5.644	-0.000115576
5.646	-0.000107399
5.648	-0.000100443
5.65	-9.58141E-05
5.652	-9.4584E-05
5.654	-9.764E-05
5.656	-0.000105592
5.658	-0.000118632
5.66	-0.000136434
5.662	-0.000158079
5.664	-0.00018205
5.666	-0.000206217
5.668	-0.000227924
5.67	-0.000244148
5.672	-0.000251671
5.674	-0.000247323
5.676	-0.000228296
5.678	-0.000192386
5.68	-0.000138288
5.682	-6.58117E-05
5.684	2.39595E-05
5.686	0.000128629
5.688	0.000244505
5.69	0.000366765
5.692	0.000489726
5.694	0.000607104
5.696	0.000712658
5.698	0.000800334
5.7	0.000864934
5.702	0.000902503
5.704	0.00091056
5.706	0.000888391
5.708	0.000837092
5.71	0.000759333
5.712	0.000659404
5.714	0.000542646
5.716	0.00041507
5.718	0.000283108
5.72	0.000152944
5.722	3.02274E-05
5.724	-8.02622E-05
5.726	-0.000174861
5.728	-0.000251142
5.73	-0.000307957
5.732	-0.000345354
5.734	-0.000364439
5.736	-0.000367161
5.738	-0.000356105
5.74	-0.000334222
5.742	-0.000304596
5.744	-0.000270265
5.746	-0.000234012
5.748	-0.000198255
5.75	-0.000164939
5.752	-0.000135495
5.754	-0.000110841
5.756	-9.13897E-05
5.758	-7.71156E-05
5.76	-6.7652E-05
5.762	-6.236E-05
5.764	-6.04386E-05
5.766	-6.1006E-05
5.768	-6.31752E-05
5.77	-6.61168E-05
5.772	-6.91299E-05
5.774	-7.16377E-05
5.776	-7.32491E-05
5.778	-7.37354E-05
5.78	-7.3025E-05
5.782	-7.11847E-05
5.784	-6.83814E-05
5.786	-6.48486E-05
5.788	-6.08486E-05
5.79	-5.66341E-05
5.792	-5.24434E-05
5.794	-4.8472E-05
5.796	-4.48653E-05
5.798	-4.1723E-05
5.8	-3.90856E-05
5.802	-3.69464E-05
5.804	-3.52539E-05
5.806	-3.39251E-05
5.808	-3.28586E-05
5.81	-3.19499E-05
5.812	-3.11046E-05
5.814	-3.02431E-05
5.816	-2.93077E-05
5.818	-2.8257E-05
5.82	-2.70622E-05
5.822	-2.57063E-05
5.824	-2.41793E-05
5.826	-2.24787E-05
5.828	-2.06107E-05
5.83	-1.85864E-05
5.832	-1.642E-05
5.834	-1.41225E-05
5.836	-1.16982E-05
5.838	-9.14184E-06
5.84	-6.43862E-06
5.842	-3.57054E-06
5.844	-5.20524E-07
5.846	2.72362E-06
5.848	6.16734E-06
5.85	9.8112E-06
5.852	1.36544E-05
5.854	1.76982E-05
5.856	2.19485E-05
5.858	2.64119E-05
5.86	3.1098E-05
5.862	3.60153E-05
5.864	4.11714E-05
5.866	4.65788E-05
5.868	5.22527E-05
5.87	5.82265E-05
5.872	6.4534E-05
5.874	7.12086E-05
5.876	7.83027E-05
5.878	8.58355E-05
5.88	9.3826E-05
5.882	0.000102265
5.884	0.000111137
5.886	0.000120405
5.888	0.000130017
5.89	0.000139924
5.892	0.00015005
5.894	0.000160319
5.896	0.000170646
5.898	0.000180939
5.9	0.000191108
5.902	0.000201077
5.904	0.000210779
5.906	0.000220172
5.908	0.000229211
5.91	0.000237878
5.912	0.000246136
5.914	0.000253959
5.916	0.000261297
5.918	0.000268105
5.92	0.000274317
5.922	0.000279857
5.924	0.000284644
5.926	0.000288567
5.928	0.000291514
5.93	0.000293344
5.932	0.000293921
5.934	0.000293111
5.936	0.000290789
5.938	0.00028687
5.94	0.000281292
5.942	0.000274045
5.944	0.000265149
5.946	0.00025467
5.948	0.000242708
5.95	0.000229406
5.952	0.000214937
5.954	0.000199509
5.956	0.000183352
5.958	0.000166713
5.96	0.000149831
5.962	0.00013293
5.964	0.000116215
5.966	9.98617E-05
5.968	8.40191E-05
5.97	6.8801E-05
5.972	5.4317E-05
5.974	4.06327E-05
5.976	2.77974E-05
5.978	1.58331E-05
5.98	4.73778E-06
5.982	-5.50989E-06
5.984	-1.49416E-05
5.986	-2.35948E-05
5.988	-3.15061E-05
5.99	-3.87089E-05
5.992	-4.52353E-05
5.994	-5.1118E-05
5.996	-5.64005E-05
5.998	-6.11156E-05
6	-6.53063E-05
6.002	-6.90155E-05
6.004	-7.2267E-05
6.006	-7.50846E-05
6.008	-7.7497E-05
6.01	-7.95137E-05
6.012	-8.11633E-05
6.014	-8.24601E-05
6.016	-8.34327E-05
6.018	-8.41097E-05
6.02	-8.45101E-05
6.022	-8.46484E-05
6.024	-8.45435E-05
6.026	-8.42193E-05
6.028	-8.36901E-05
6.03	-8.29988E-05
6.032	-8.21836E-05
6.034	-8.12872E-05
6.036	-8.03433E-05
6.038	-7.93897E-05
6.04	-7.8441E-05
6.042	-7.75256E-05
6.044	-7.66436E-05
6.046	-7.58141E-05
6.048	-7.5056E-05
6.05	-7.4379E-05
6.052	-7.38021E-05
6.054	-7.33254E-05
6.056	-7.29535E-05
6.058	-7.26961E-05
6.06	-7.25483E-05
6.062	-7.25149E-05
6.064	-7.26055E-05
6.066	-7.282E-05
6.068	-7.31585E-05
6.07	-7.35971E-05
6.072	-7.4112E-05
6.074	-7.46555E-05
6.076	-7.51895E-05
6.078	-7.56567E-05
6.08	-7.60286E-05
6.082	-7.62622E-05
6.084	-7.6329E-05
6.086	-7.62193E-05
6.088	-7.59094E-05
6.09	-7.53945E-05
6.092	-7.46841E-05
6.094	-7.37926E-05
6.096	-7.27533E-05
6.098	-7.16138E-05
6.1	-7.04315E-05
6.102	-6.92634E-05
6.104	-6.81621E-05
6.106	-6.71752E-05
6.108	-6.63361E-05
6.11	-6.56782E-05
6.112	-6.523E-05
6.114	-6.50155E-05
6.116	-6.50441E-05
6.118	-6.53254E-05
6.12	-6.58355E-05
6.122	-6.65459E-05
6.124	-6.74136E-05
6.126	-6.83766E-05
6.128	-6.93826E-05
6.13	-7.03743E-05
6.132	-7.13039E-05
6.134	-7.21287E-05
6.136	-7.282E-05
6.138	-7.33445E-05
6.14	-7.36877E-05
6.142	-7.38498E-05
6.144	-7.38355E-05
6.146	-7.36782E-05
6.148	-7.34207E-05
6.15	-7.31156E-05
6.152	-7.28105E-05
6.154	-7.25483E-05
6.156	-7.2348E-05
6.158	-7.22384E-05
6.16	-7.22145E-05
6.162	-7.22813E-05
6.164	-7.24338E-05
6.166	-7.26579E-05
6.168	-7.2944E-05
6.17	-7.32586E-05
6.172	-7.35781E-05
6.174	-7.38689E-05
6.176	-7.41073E-05
6.178	-7.42694E-05
6.18	-7.43504E-05
6.182	-7.43647E-05
6.184	-7.43313E-05
6.186	-7.42646E-05
6.188	-7.41883E-05
6.19	-7.41168E-05
6.192	-7.40739E-05
6.194	-7.40739E-05
6.196	-7.41263E-05
6.198	-7.42455E-05
6.2	-7.44315E-05
6.202	-7.46889E-05
6.204	-7.4994E-05
6.206	-7.53182E-05
6.208	-7.56138E-05
6.21	-7.58379E-05
6.212	-7.59476E-05
6.214	-7.58999E-05
6.216	-7.56472E-05
6.218	-7.51657E-05
6.22	-7.44124E-05
6.222	-7.33588E-05
6.224	-7.19905E-05
6.226	-7.03075E-05
6.228	-6.83194E-05
6.23	-6.60691E-05
6.232	-6.36281E-05
6.234	-6.10584E-05
6.236	-5.84553E-05
6.238	-5.58951E-05
6.24	-5.34446E-05
6.242	-5.11704E-05
6.244	-4.91204E-05
6.246	-4.73349E-05
6.248	-4.58441E-05
6.25	-4.46632E-05
6.252	-4.37955E-05
6.254	-4.3231E-05
6.256	-4.29492E-05
6.258	-4.29235E-05
6.26	-4.31261E-05
6.262	-4.35294E-05
6.264	-4.41082E-05
6.266	-4.48367E-05
6.268	-4.56834E-05
6.27	-4.66107E-05
6.272	-4.75771E-05
6.274	-4.85435E-05
6.276	-4.94827E-05
6.278	-5.03886E-05
6.28	-5.12944E-05
6.282	-5.22527E-05
6.284	-5.33683E-05
6.286	-5.47461E-05
6.288	-5.65197E-05
6.29	-5.88272E-05
6.292	-6.17735E-05
6.294	-6.54446E-05
6.296	-6.98832E-05
6.298	-7.5056E-05
6.3	-8.08534E-05
6.302	-8.70846E-05
6.304	-9.34541E-05
6.306	-9.95995E-05
6.308	-0.000105106
6.31	-0.000109549
6.312	-0.00011252
6.314	-0.000113688
6.316	-0.000112839
6.318	-0.000109917
6.32	-0.000105054
6.322	-9.85745E-05
6.324	-9.10465E-05
6.326	-8.32181E-05
6.328	-7.60191E-05
6.33	-7.04982E-05
6.332	-6.77187E-05
6.334	-6.86675E-05
6.336	-7.41359E-05
6.338	-8.45816E-05
6.34	-0.000100052
6.342	-0.000120043
6.344	-0.000143495
6.346	-0.000168725
6.348	-0.000193507
6.35	-0.000215118
6.352	-0.000230522
6.354	-0.000236524
6.356	-0.00023005
6.358	-0.00020841
6.36	-0.000169554
6.362	-0.000112348
6.364	-3.67914E-05
6.366	5.58713E-05
6.368	0.00016308
6.37	0.000281025
6.372	0.000404796
6.374	0.000528677
6.376	0.000646389
6.378	0.000751704
6.38	0.000838617
6.382	0.000902122
6.384	0.000938308
6.386	0.000944839
6.388	0.000921049
6.39	0.000868129
6.392	0.000788892
6.394	0.000687628
6.396	0.000569726
6.398	0.000441282
6.4	0.000308706
6.402	0.000178179
6.404	5.53421E-05
6.406	-5.50513E-05
6.408	-0.000149349
6.41	-0.000225159
6.412	-0.000281364
6.414	-0.000318045
6.416	-0.000336362
6.418	-0.000338331
6.42	-0.000326589
6.422	-0.000304162
6.424	-0.000274207
6.426	-0.000239814
6.428	-0.000203819
6.43	-0.000168672
6.432	-0.000136334
6.434	-0.000108229
6.436	-8.52396E-05
6.438	-6.77378E-05
6.44	-5.56377E-05
6.442	-4.84863E-05
6.444	-4.55671E-05
6.446	-4.59957E-05
6.448	-4.882E-05
6.45	-5.30965E-05
6.452	-5.7969E-05
6.454	-6.26985E-05
6.456	-6.6708E-05
6.458	-6.96019E-05
6.46	-7.11514E-05
6.462	-7.12944E-05
6.464	-7.0112E-05
6.466	-6.77807E-05
6.468	-6.45483E-05
6.47	-6.0677E-05
6.472	-5.64482E-05
6.474	-5.21049E-05
6.476	-4.78522E-05
6.478	-4.38431E-05
6.48	-4.01936E-05
6.482	-3.69626E-05
6.484	-3.41631E-05
6.486	-3.17683E-05
6.488	-2.97182E-05
6.49	-2.79337E-05
6.492	-2.63275E-05
6.494	-2.4821E-05
6.496	-2.33483E-05
6.498	-2.18656E-05
6.5	-2.03461E-05
6.502	-1.87766E-05
6.504	-1.71518E-05
6.506	-1.54698E-05
6.508	-1.37302E-05
6.51	-1.19333E-05
6.512	-1.00801E-05
6.514	-8.16973E-06
6.516	-6.19595E-06
6.518	-4.14379E-06
6.52	-1.98636E-06
6.522	3.13406E-07
6.524	2.79933E-06
6.526	5.51514E-06
6.528	8.49821E-06
6.53	1.17759E-05
6.532	1.53631E-05
6.534	1.92687E-05
6.536	2.34965E-05
6.538	2.80501E-05
6.54	3.29349E-05
6.542	3.81573E-05
6.544	4.37225E-05
6.546	4.96353E-05
6.548	5.58951E-05
6.55	6.25125E-05
6.552	6.9497E-05
6.554	7.68582E-05
6.556	8.46198E-05
6.558	9.27867E-05
6.56	0.000101364
6.562	0.000110331
6.564	0.000119657
6.566	0.000129278
6.568	0.000139132
6.57	0.00014913
6.572	0.000159204
6.574	0.000169259
6.576	0.000179223
6.578	0.00018902
6.58	0.000198574
6.582	0.000207828
6.584	0.000216744
6.586	0.000225297
6.588	0.000233483
6.59	0.000241311
6.592	0.000248801
6.594	0.000255971
6.596	0.000262822
6.598	0.000269325
6.6	0.000275437
6.602	0.000281092
6.604	0.000286193
6.606	0.000290617
6.608	0.000294236
6.61	0.000296882
6.612	0.000298389
6.614	0.000298594
6.616	0.00029733
6.618	0.00029447
6.62	0.000289921
6.622	0.000283638
6.624	0.000275642
6.626	0.000265983
6.628	0.000254779
6.63	0.000242174
6.632	0.000228343
6.634	0.000213497
6.636	0.000197855
6.638	0.000181659
6.64	0.000165144
6.642	0.000148534
6.644	0.000132033
6.646	0.000115819
6.648	0.000100029
6.65	8.47771E-05
6.652	7.01454E-05
6.654	5.62002E-05
6.656	4.29807E-05
6.658	3.05154E-05
6.66	1.8811E-05
6.662	7.85793E-06
6.664	-2.36634E-06
6.666	-1.18927E-05
6.668	-2.07528E-05
6.67	-2.8974E-05
6.672	-3.65774E-05
6.674	-4.35757E-05
6.676	-4.99785E-05
6.678	-5.58045E-05
6.68	-6.10679E-05
6.682	-6.57878E-05
6.684	-6.99928E-05
6.686	-7.37116E-05
6.688	-7.69678E-05
6.69	-7.97902E-05
6.692	-8.22074E-05
6.694	-8.42574E-05
6.696	-8.59881E-05
6.698	-8.74422E-05
6.7	-8.86722E-05
6.702	-8.97259E-05
6.704	-9.06412E-05
6.706	-9.14517E-05
6.708	-9.21812E-05
6.71	-9.28486E-05
6.712	-9.34827E-05
6.714	-9.4112E-05
6.716	-9.47509E-05
6.718	-9.54231E-05
6.72	-9.61383E-05
6.722	-9.68915E-05
6.724	-9.7683E-05
6.726	-9.84982E-05
6.728	-9.93182E-05
6.73	-0.000100129
6.732	-0.00010092
6.734	-0.000101678
6.736	-0.000102374
6.738	-0.000102994
6.74	-0.000103499
6.742	-0.000103871
6.744	-0.000104095
6.746	-0.000104167
6.748	-0.0001041
6.75	-0.000103924
6.752	-0.000103662
6.754	-0.000103356
6.756	-0.000103037
6.758	-0.000102727
6.76	-0.000102455
6.762	-0.00010225
6.764	-0.000102122
6.766	-0.000102083
6.768	-0.000102131
6.77	-0.00010225
6.772	-0.000102412
6.774	-0.000102579
6.776	-0.000102708
6.778	-0.000102775
6.78	-0.000102756
6.782	-0.000102636
6.784	-0.000102422
6.786	-0.000102117
6.788	-0.00010174
6.79	-0.000101302
6.792	-0.00010083
6.794	-0.000100353
6.796	-9.98951E-05
6.798	-9.94946E-05
6.8	-9.91752E-05
6.802	-9.89607E-05
6.804	-9.88415E-05
6.806	-9.88176E-05
6.808	-9.88653E-05
6.81	-9.89654E-05
6.812	-9.90942E-05
6.814	-9.92372E-05
6.816	-9.93897E-05
6.818	-9.95518E-05
6.82	-9.97092E-05
6.822	-9.98713E-05
6.824	-0.000100024
6.826	-0.000100172
6.828	-0.000100315
6.83	-0.000100467
6.832	-0.000100639
6.834	-0.000100849
6.836	-0.000101106
6.838	-0.000101421
6.84	-0.000101793
6.842	-0.000102231
6.844	-0.000102732
6.846	-0.000103304
6.848	-0.000103957
6.85	-0.000104687
6.852	-0.000105492
6.854	-0.000106346
6.856	-0.000107209
6.858	-0.000108024
6.86	-0.000108744
6.862	-0.000109302
6.864	-0.000109635
6.866	-0.000109683
6.868	-0.000109402
6.87	-0.000108739
6.872	-0.000107652
6.874	-0.000106117
6.876	-0.000104138
6.878	-0.00010175
6.88	-9.89988E-05
6.882	-9.59905E-05
6.884	-9.28248E-05
6.886	-8.9621E-05
6.888	-8.65125E-05
6.89	-8.35995E-05
6.892	-8.09821E-05
6.894	-7.87366E-05
6.896	-7.69106E-05
6.898	-7.55375E-05
6.9	-7.46126E-05
6.902	-7.41073E-05
6.904	-7.39595E-05
6.906	-7.40977E-05
6.908	-7.44362E-05
6.91	-7.48939E-05
6.912	-7.53945E-05
6.914	-7.58713E-05
6.916	-7.62765E-05
6.918	-7.65673E-05
6.92	-7.67199E-05
6.922	-7.67056E-05
6.924	-7.65292E-05
6.926	-7.62098E-05
6.928	-7.5795E-05
6.93	-7.53707E-05
6.932	-7.50465E-05
6.934	-7.49654E-05
6.936	-7.52801E-05
6.938	-7.61526E-05
6.94	-7.77402E-05
6.942	-8.01764E-05
6.944	-8.35614E-05
6.946	-8.7938E-05
6.948	-9.3292E-05
6.95	-9.95185E-05
6.952	-0.000106422
6.954	-0.000113712
6.956	-0.000121006
6.958	-0.000127871
6.96	-0.00013384
6.962	-0.000138455
6.964	-0.000141321
6.966	-0.00014215
6.968	-0.000140782
6.97	-0.000137249
6.972	-0.000131785
6.974	-0.000124844
6.976	-0.000117106
6.978	-0.000109445
6.98	-0.00010288
6.982	-9.8503E-05
6.984	-9.73826E-05
6.986	-0.000100448
6.988	-0.000108348
6.99	-0.000121364
6.992	-0.00013929
6.994	-0.000161344
6.996	-0.00018616
6.998	-0.000211752
7	-0.000235609
7.002	-0.000254784
7.004	-0.000266083
7.006	-0.000266293
7.008	-0.000252448
7.01	-0.000222098
7.012	-0.000173611
7.014	-0.000106398
7.016	-2.10841E-05
7.018	8.03719E-05
7.02	0.000194689
7.022	0.000317392
7.024	0.000442999
7.026	0.00056534
7.028	0.000677998
7.03	0.000774732
7.032	0.000849821
7.034	0.000898784
7.036	0.000918474
7.038	0.000907414
7.04	0.000866031
7.042	0.000796424
7.044	0.000702408
7.046	0.000588987
7.048	0.00046216
7.05	0.000328424
7.052	0.000194255
7.054	6.57354E-05
7.056	-5.18188E-05
7.058	-0.00015416
7.06	-0.000238279
7.062	-0.000302479
7.064	-0.000346374
7.066	-0.000370741
7.068	-0.000377364
7.07	-0.000368763
7.072	-0.000347971
7.074	-0.000318274
7.076	-0.000282951
7.078	-0.000245082
7.08	-0.000207399
7.082	-0.000172129
7.084	-0.000140944
7.086	-0.000114942
7.088	-9.46365E-05
7.09	-8.00524E-05
7.092	-7.0789E-05
7.094	-6.61216E-05
7.096	-6.51395E-05
7.098	-6.68272E-05
7.1	-7.01692E-05
7.102	-7.42312E-05
7.104	-7.81979E-05
7.106	-8.14493E-05
7.108	-8.35423E-05
7.11	-8.42479E-05
7.112	-8.34994E-05
7.114	-8.13969E-05
7.116	-7.81549E-05
7.118	-7.40548E-05
7.12	-6.9416E-05
7.122	-6.4534E-05
7.124	-5.96901E-05
7.126	-5.51037E-05
7.128	-5.09416E-05
7.13	-4.73035E-05
7.132	-4.42312E-05
7.134	-4.17092E-05
7.136	-3.96734E-05
7.138	-3.80219E-05
7.14	-3.66317E-05
7.142	-3.53735E-05
7.144	-3.41302E-05
7.146	-3.28062E-05
7.148	-3.13335E-05
7.15	-2.96725E-05
7.152	-2.78069E-05
7.154	-2.57378E-05
7.156	-2.34803E-05
7.158	-2.10579E-05
7.16	-1.84996E-05
7.162	-1.58389E-05
7.164	-1.3107E-05
7.166	-1.03261E-05
7.168	-7.5056E-06
7.17	-4.63404E-06
7.172	-1.68124E-06
7.174	1.39981E-06
7.176	4.66617E-06
7.178	8.17783E-06
7.18	1.19928E-05
7.182	1.61621E-05
7.184	2.07309E-05
7.186	2.57364E-05
7.188	3.12062E-05
7.19	3.71557E-05
7.192	4.35828E-05
7.194	5.04648E-05
7.196	5.7764E-05
7.198	6.5416E-05
7.2	7.33492E-05
7.202	8.1497E-05
7.204	8.97974E-05
7.206	9.81883E-05
7.208	0.000106641
7.21	0.000115128
7.212	0.000123623
7.214	0.000132133
7.216	0.000140663
7.218	0.000149221
7.22	0.000157836
7.222	0.000166536
7.224	0.000175361
7.226	0.000184324
7.228	0.000193435
7.23	0.000202684
7.232	0.000212033
7.234	0.000221445
7.236	0.000230861
7.238	0.000240219
7.24	0.000249449
7.242	0.000258479
7.244	0.000267228
7.246	0.000275595
7.248	0.00028348
7.25	0.000290775
7.252	0.000297354
7.254	0.000303113
7.256	0.000307933
7.258	0.0003117
7.26	0.000314293
7.262	0.000315609
7.264	0.000315528
7.266	0.000313945
7.268	0.000310789
7.27	0.000306002
7.272	0.000299566
7.274	0.00029149
7.276	0.000281836
7.278	0.000270675
7.28	0.000258117
7.282	0.0002443
7.284	0.000229387
7.286	0.000213564
7.288	0.000197035
7.29	0.000180029
7.292	0.000162756
7.294	0.000145449
7.296	0.000128305
7.298	0.000111504
7.3	9.52133E-05
7.302	7.95614E-05
7.304	6.46722E-05
7.306	5.06317E-05
7.308	3.75027E-05
7.31	2.53135E-05
7.312	1.40653E-05
7.314	3.72982E-06
7.316	-5.74207E-06
7.318	-1.44129E-05
7.32	-2.23476E-05
7.322	-2.96086E-05
7.324	-3.62527E-05
7.326	-4.23299E-05
7.328	-4.78808E-05
7.33	-5.29487E-05
7.332	-5.75495E-05
7.334	-6.1702E-05
7.336	-6.54112E-05
7.338	-6.86532E-05
7.34	-7.14136E-05
7.342	-7.36734E-05
7.344	-7.54136E-05
7.346	-7.66341E-05
7.348	-7.73588E-05
7.35	-7.76162E-05
7.352	-7.74493E-05
7.354	-7.69106E-05
7.356	-7.6062E-05
7.358	-7.4975E-05
7.36	-7.37163E-05
7.362	-7.23671E-05
7.364	-7.10131E-05
7.366	-6.97259E-05
7.368	-6.85721E-05
7.37	-6.75948E-05
7.372	-6.68176E-05
7.374	-6.62455E-05
7.376	-6.58689E-05
7.378	-6.56639E-05
7.38	-6.55924E-05
7.382	-6.56305E-05
7.384	-6.57402E-05
7.386	-6.58737E-05
7.388	-6.59976E-05
7.39	-6.60644E-05
7.392	-6.60453E-05
7.394	-6.59166E-05
7.396	-6.56687E-05
7.398	-6.53111E-05
7.4	-6.48677E-05
7.402	-6.4348E-05
7.404	-6.37807E-05
7.406	-6.31895E-05
7.408	-6.25936E-05
7.41	-6.20167E-05
7.412	-6.14827E-05
7.414	-6.10203E-05
7.416	-6.06532E-05
7.418	-6.03957E-05
7.42	-6.02574E-05
7.422	-6.02336E-05
7.424	-6.03051E-05
7.426	-6.04577E-05
7.428	-6.06675E-05
7.43	-6.09249E-05
7.432	-6.12157E-05
7.434	-6.15352E-05
7.436	-6.18784E-05
7.438	-6.22312E-05
7.44	-6.25983E-05
7.442	-6.29702E-05
7.444	-6.33659E-05
7.446	-6.3795E-05
7.448	-6.42861E-05
7.45	-6.48582E-05
7.452	-6.55399E-05
7.454	-6.63409E-05
7.456	-6.72706E-05
7.458	-6.8329E-05
7.46	-6.95066E-05
7.462	-7.08033E-05
7.464	-7.22145E-05
7.466	-7.37354E-05
7.468	-7.53421E-05
7.47	-7.70107E-05
7.472	-7.8708E-05
7.474	-8.03719E-05
7.476	-8.19499E-05
7.478	-8.33754E-05
7.48	-8.45959E-05
7.482	-8.55542E-05
7.484	-8.61931E-05
7.486	-8.64648E-05
7.488	-8.63409E-05
7.49	-8.57831E-05
7.492	-8.47867E-05
7.494	-8.33707E-05
7.496	-8.15781E-05
7.498	-7.94851E-05
7.5	-7.71824E-05
7.502	-7.47652E-05
7.504	-7.23337E-05
7.506	-6.99881E-05
7.508	-6.77998E-05
7.51	-6.58355E-05
7.512	-6.41383E-05
7.514	-6.27461E-05
7.516	-6.16591E-05
7.518	-6.08677E-05
7.52	-6.03528E-05
7.522	-6.00667E-05
7.524	-5.99809E-05
7.526	-6.00524E-05
7.528	-6.0267E-05
7.53	-6.06103E-05
7.532	-6.10822E-05
7.534	-6.16877E-05
7.536	-6.24362E-05
7.538	-6.33135E-05
7.54	-6.43147E-05
7.542	-6.54255E-05
7.544	-6.66412E-05
7.546	-6.79619E-05
7.548	-6.94207E-05
7.55	-7.1056E-05
7.552	-7.29249E-05
7.554	-7.5118E-05
7.556	-7.77163E-05
7.558	-8.082E-05
7.56	-8.45149E-05
7.562	-8.8882E-05
7.564	-9.39595E-05
7.566	-9.97569E-05
7.568	-0.000106193
7.57	-0.000113135
7.572	-0.000120343
7.574	-0.000127518
7.576	-0.000134298
7.578	-0.000140277
7.58	-0.000145054
7.582	-0.000148257
7.584	-0.000149578
7.586	-0.000148825
7.588	-0.00014595
7.59	-0.000141092
7.592	-0.000134594
7.594	-0.000127037
7.596	-0.000119199
7.598	-0.000112033
7.6	-0.000106603
7.602	-0.00010399
7.604	-0.000105178
7.606	-0.000110951
7.608	-0.00012175
7.61	-0.000137588
7.612	-0.000157936
7.614	-0.000181664
7.616	-0.000207042
7.618	-0.000231743
7.62	-0.000252963
7.622	-0.000267557
7.624	-0.000272267
7.626	-0.000263981
7.628	-0.000239995
7.63	-0.000198327
7.632	-0.000137931
7.634	-5.89511E-05
7.636	3.7189E-05
7.638	0.000147733
7.64	0.000268648
7.642	0.000394822
7.644	0.000520334
7.646	0.00063876
7.648	0.00074379
7.65	0.000829511
7.652	0.000890822
7.654	0.000924148
7.656	0.000927247
7.658	0.000899833
7.66	0.000843337
7.662	0.00076081
7.664	0.000656782
7.666	0.000536782
7.668	0.000407066
7.67	0.000274026
7.672	0.000143862
7.674	2.21478E-05
7.676	-8.64744E-05
7.678	-0.000178517
7.68	-0.000251752
7.682	-0.000305235
7.684	-0.000339218
7.686	-0.000354994
7.688	-0.000354698
7.69	-0.000341054
7.692	-0.000317139
7.694	-0.000286145
7.696	-0.000251161
7.698	-0.000214994
7.7	-0.000180033
7.702	-0.000148153
7.704	-0.000120672
7.706	-9.836E-05
7.708	-8.14732E-05
7.71	-6.98403E-05
7.712	-6.29511E-05
7.714	-6.00477E-05
7.716	-6.02384E-05
7.718	-6.25888E-05
7.72	-6.61836E-05
7.722	-7.02217E-05
7.724	-7.40262E-05
7.726	-7.71108E-05
7.728	-7.91514E-05
7.73	-8.00048E-05
7.732	-7.96663E-05
7.734	-7.82598E-05
7.736	-7.59619E-05
7.738	-7.30012E-05
7.74	-6.96162E-05
7.742	-6.60262E-05
7.744	-6.24124E-05
7.746	-5.89368E-05
7.748	-5.56996E-05
7.75	-5.27676E-05
7.752	-5.01549E-05
7.754	-4.78522E-05
7.756	-4.58074E-05
7.758	-4.39657E-05
7.76	-4.22675E-05
7.762	-4.06603E-05
7.764	-3.91042E-05
7.766	-3.75685E-05
7.768	-3.60305E-05
7.77	-3.44682E-05
7.772	-3.28577E-05
7.774	-3.11728E-05
7.776	-2.93855E-05
7.778	-2.74708E-05
7.78	-2.54088E-05
7.782	-2.31819E-05
7.784	-2.07771E-05
7.786	-1.81831E-05
7.788	-1.53907E-05
7.79	-1.23962E-05
7.792	-9.20524E-06
7.794	-5.83313E-06
7.796	-2.30713E-06
7.798	1.33931E-06
7.8	5.07461E-06
7.802	8.87771E-06
7.804	1.27442E-05
7.806	1.66913E-05
7.808	2.07547E-05
7.81	2.49874E-05
7.812	2.94493E-05
7.814	3.42069E-05
7.816	3.93268E-05
7.818	4.48753E-05
7.82	5.0913E-05
7.822	5.74875E-05
7.824	6.46293E-05
7.826	7.23528E-05
7.828	8.06293E-05
7.83	8.9416E-05
7.832	9.86317E-05
7.834	0.000108186
7.836	0.000117974
7.838	0.000127881
7.84	0.000137802
7.842	0.000147647
7.844	0.000157316
7.846	0.000166727
7.848	0.000175809
7.85	0.00018452
7.852	0.00019283
7.854	0.000200739
7.856	0.000208267
7.858	0.000215447
7.86	0.000222312
7.862	0.000228896
7.864	0.000235218
7.866	0.000241263
7.868	0.000247018
7.87	0.000252415
7.872	0.000257383
7.874	0.000261802
7.876	0.00026554
7.878	0.00026841
7.88	0.000270231
7.882	0.000270799
7.884	0.000269912
7.886	0.000267414
7.888	0.00026317
7.89	0.000257097
7.892	0.000249173
7.894	0.000239418
7.896	0.000227924
7.898	0.000214813
7.9	0.000200267
7.902	0.000184515
7.904	0.000167805
7.906	0.000150417
7.908	0.000132634
7.91	0.000114732
7.912	9.69631E-05
7.914	7.95518E-05
7.916	6.26794E-05
7.918	4.64982E-05
7.92	3.11328E-05
7.922	1.66684E-05
7.924	3.16253E-06
7.926	-9.36067E-06
7.928	-2.09082E-05
7.93	-3.15151E-05
7.932	-4.12381E-05
7.934	-5.01454E-05
7.936	-5.8317E-05
7.938	-6.58164E-05
7.94	-7.27104E-05
7.942	-7.90513E-05
7.944	-8.48868E-05
7.946	-9.02598E-05
7.948	-9.51895E-05
7.95	-9.96996E-05
7.952	-0.00010379
7.954	-0.000107456
7.956	-0.000110675
7.958	-0.00011343
7.96	-0.000115709
7.962	-0.000117511
7.964	-0.000118861
7.966	-0.000119776
7.968	-0.0001203
7.97	-0.000120477
7.972	-0.000120358
7.974	-0.000119976
7.976	-0.00011938
7.978	-0.000118622
7.98	-0.00011774
7.982	-0.000116782
7.984	-0.000115771
7.986	-0.000114741
7.988	-0.000113697
7.99	-0.000112648
7.992	-0.00011159
7.994	-0.000110532
7.996	-0.000109483
7.998	-0.000108472
8	-0.000107523
8.002	-0.00010666
8.004	-0.000105912
8.006	-0.000105297
8.008	-0.00010483
8.01	-0.00010451
8.012	-0.000104338
8.014	-0.000104319
8.016	-0.000104429
8.018	-0.000104644
8.02	-0.00010492
8.022	-0.000105211
8.024	-0.000105449
8.026	-0.000105583
8.028	-0.000105569
8.03	-0.000105373
8.032	-0.000104992
8.034	-0.000104434
8.036	-0.000103719
8.038	-0.000102884
8.04	-0.000101979
8.042	-0.000101049
8.044	-0.000100162
8.046	-9.93754E-05
8.048	-9.87461E-05
8.05	-9.83123E-05
8.052	-9.80977E-05
8.054	-9.81025E-05
8.056	-9.83027E-05
8.058	-9.86508E-05
8.06	-9.91085E-05
8.062	-9.96234E-05
8.064	-0.000100172
8.066	-0.000100729
8.068	-0.000101302
8.07	-0.000101888
8.072	-0.000102522
8.074	-0.000103228
8.076	-0.000104052
8.078	-0.000105044
8.08	-0.000106231
8.082	-0.000107652
8.084	-0.000109302
8.086	-0.000111156
8.088	-0.000113149
8.09	-0.000115185
8.092	-0.000117149
8.094	-0.000118918
8.096	-0.000120362
8.098	-0.000121373
8.1	-0.000121855
8.102	-0.000121731
8.104	-0.000120963
8.106	-0.000119533
8.108	-0.000117449
8.11	-0.00011476
8.112	-0.000111538
8.114	-0.000107886
8.116	-0.000103919
8.118	-9.97616E-05
8.12	-9.55375E-05
8.122	-9.13659E-05
8.124	-8.73421E-05
8.126	-8.35662E-05
8.128	-8.01049E-05
8.13	-7.70155E-05
8.132	-7.43313E-05
8.134	-7.20572E-05
8.136	-7.01788E-05
8.138	-6.86484E-05
8.14	-6.74041E-05
8.142	-6.63695E-05
8.144	-6.54875E-05
8.146	-6.47104E-05
8.148	-6.40095E-05
8.15	-6.33802E-05
8.152	-6.28367E-05
8.154	-6.23981E-05
8.156	-6.2093E-05
8.158	-6.19452E-05
8.16	-6.19881E-05
8.162	-6.22455E-05
8.164	-6.27366E-05
8.166	-6.34756E-05
8.168	-6.4472E-05
8.17	-6.57259E-05
8.172	-6.7242E-05
8.174	-6.90298E-05
8.176	-7.11228E-05
8.178	-7.35638E-05
8.18	-7.64195E-05
8.182	-7.97664E-05
8.184	-8.36663E-05
8.186	-8.81573E-05
8.188	-9.32491E-05
8.19	-9.88939E-05
8.192	-0.000104973
8.194	-0.000111318
8.196	-0.000117688
8.198	-0.000123795
8.2	-0.000129287
8.202	-0.000133802
8.204	-0.000136963
8.206	-0.000138431
8.208	-0.000137955
8.21	-0.000135399
8.212	-0.000130799
8.214	-0.000124386
8.216	-0.000116615
8.218	-0.000108133
8.22	-9.98045E-05
8.222	-9.26103E-05
8.224	-8.76281E-05
8.226	-8.59261E-05
8.228	-8.84482E-05
8.23	-9.58999E-05
8.232	-0.000108629
8.234	-0.000126508
8.236	-0.00014883
8.238	-0.000174269
8.24	-0.000200863
8.242	-0.000226079
8.244	-0.000246937
8.246	-0.000260172
8.248	-0.000262465
8.25	-0.000250713
8.252	-0.000222303
8.254	-0.000175404
8.256	-0.000109197
8.258	-2.40992E-05
8.26	7.81359E-05
8.262	0.000194389
8.264	0.000320272
8.266	0.000450322
8.268	0.000578355
8.27	0.000697783
8.272	0.000802193
8.274	0.000885673
8.276	0.000943361
8.278	0.000971776
8.28	0.000969106
8.282	0.000935352
8.284	0.000872277
8.286	0.000783409
8.288	0.000673516
8.29	0.000548605
8.292	0.000415008
8.294	0.00027939
8.296	0.000147981
8.298	2.63447E-05
8.3	-8.09774E-05
8.302	-0.000170646
8.304	-0.00024062
8.306	-0.000290179
8.308	-0.000319809
8.31	-0.000331066
8.312	-0.000326327
8.314	-0.000308572
8.316	-0.000281097
8.318	-0.000247271
8.32	-0.000210303
8.322	-0.000173054
8.324	-0.000137902
8.326	-0.000106665
8.328	-8.05721E-05
8.33	-6.02574E-05
8.332	-4.58379E-05
8.334	-3.69783E-05
8.336	-3.29921E-05
8.338	-3.2953E-05
8.34	-3.58112E-05
8.342	-4.04958E-05
8.344	-4.60081E-05
8.346	-5.14899E-05
8.348	-5.62718E-05
8.35	-5.98808E-05
8.352	-6.20501E-05
8.354	-6.2708E-05
8.356	-6.19213E-05
8.358	-5.98903E-05
8.36	-5.69058E-05
8.362	-5.3292E-05
8.364	-4.93826E-05
8.366	-4.54956E-05
8.368	-4.18808E-05
8.37	-3.8719E-05
8.372	-3.61077E-05
8.374	-3.40658E-05
8.376	-3.2544E-05
8.378	-3.14431E-05
8.38	-3.06327E-05
8.382	-2.99676E-05
8.384	-2.93015E-05
8.386	-2.85025E-05
8.388	-2.74608E-05
8.39	-2.60996E-05
8.392	-2.438E-05
8.394	-2.23046E-05
8.396	-1.99113E-05
8.398	-1.72653E-05
8.4	-1.44458E-05
8.402	-1.15285E-05
8.404	-8.5764E-06
8.406	-5.63051E-06
8.408	-2.70799E-06
8.41	1.95418E-07
8.412	3.10136E-06
8.414	6.04482E-06
8.416	9.0708E-06
8.418	1.22317E-05
8.42	1.55843E-05
8.422	1.91838E-05
8.424	2.30799E-05
8.426	2.73082E-05
8.428	3.18889E-05
8.43	3.68257E-05
8.432	4.21097E-05
8.434	4.77282E-05
8.436	5.36639E-05
8.438	5.99094E-05
8.44	6.64696E-05
8.442	7.33397E-05
8.444	8.05292E-05
8.446	8.80381E-05
8.448	9.58617E-05
8.45	0.000103995
8.452	0.00011242
8.454	0.00012113
8.456	0.000130098
8.458	0.000139299
8.46	0.000148691
8.462	0.000158222
8.464	0.000167814
8.466	0.000177402
8.468	0.000186913
8.47	0.000196281
8.472	0.000205464
8.474	0.000214417
8.476	0.000223113
8.478	0.000231533
8.48	0.000239647
8.482	0.000247442
8.484	0.000254889
8.486	0.000261974
8.488	0.000268667
8.49	0.000274937
8.492	0.000280734
8.494	0.000285988
8.496	0.000290603
8.498	0.000294465
8.5	0.00029744
8.502	0.000299385
8.504	0.000300167
8.506	0.000299652
8.508	0.000297726
8.51	0.000294293
8.512	0.000289278
8.514	0.000282646
8.516	0.000274379
8.518	0.000264529
8.52	0.000253168
8.522	0.000240434
8.524	0.000226489
8.526	0.000211528
8.528	0.000195766
8.53	0.000179428
8.532	0.000162732
8.534	0.000145912
8.536	0.000129178
8.538	0.000112739
8.54	9.67962E-05
8.542	8.15066E-05
8.544	6.70131E-05
8.546	5.34017E-05
8.548	4.07423E-05
8.55	2.90589E-05
8.552	1.83547E-05
8.554	8.60834E-06
8.556	-2.18098E-07
8.558	-8.17878E-06
8.56	-1.5343E-05
8.562	-2.17936E-05
8.564	-2.76195E-05
8.566	-3.29111E-05
8.568	-3.77483E-05
8.57	-4.21983E-05
8.572	-4.63085E-05
8.574	-5.01073E-05
8.576	-5.36162E-05
8.578	-5.68343E-05
8.58	-5.97759E-05
8.582	-6.24362E-05
8.584	-6.48105E-05
8.586	-6.69035E-05
8.588	-6.87104E-05
8.59	-7.02265E-05
8.592	-7.1466E-05
8.594	-7.24482E-05
8.596	-7.31967E-05
8.598	-7.37592E-05
8.6	-7.4174E-05
8.602	-7.44934E-05
8.604	-7.47366E-05
8.606	-7.49416E-05
8.608	-7.51132E-05
8.61	-7.52658E-05
8.612	-7.54088E-05
8.614	-7.55375E-05
8.616	-7.56615E-05
8.618	-7.57616E-05
8.62	-7.58331E-05
8.622	-7.58522E-05
8.624	-7.57902E-05
8.626	-7.56186E-05
8.628	-7.53278E-05
8.63	-7.49035E-05
8.632	-7.43456E-05
8.634	-7.36544E-05
8.636	-7.28439E-05
8.638	-7.1919E-05
8.64	-7.08939E-05
8.642	-6.97735E-05
8.644	-6.85959E-05
8.646	-6.73897E-05
8.648	-6.61931E-05
8.65	-6.50584E-05
8.652	-6.40191E-05
8.654	-6.3118E-05
8.656	-6.23743E-05
8.658	-6.18117E-05
8.66	-6.1435E-05
8.662	-6.12634E-05
8.664	-6.12968E-05
8.666	-6.15352E-05
8.668	-6.19595E-05
8.67	-6.25459E-05
8.672	-6.32515E-05
8.674	-6.40429E-05
8.676	-6.48629E-05
8.678	-6.56734E-05
8.68	-6.64505E-05
8.682	-6.71657E-05
8.684	-6.78093E-05
8.686	-6.83814E-05
8.688	-6.88677E-05
8.69	-6.92729E-05
8.692	-6.95924E-05
8.694	-6.98403E-05
8.696	-7.00215E-05
8.698	-7.01549E-05
8.7	-7.02503E-05
8.702	-7.03218E-05
8.704	-7.03695E-05
8.706	-7.03933E-05
8.708	-7.03838E-05
8.71	-7.03409E-05
8.712	-7.02694E-05
8.714	-7.01836E-05
8.716	-7.00977E-05
8.718	-7.00262E-05
8.72	-6.99881E-05
8.722	-6.99928E-05
8.724	-7.00501E-05
8.726	-7.0174E-05
8.728	-7.0379E-05
8.73	-7.06841E-05
8.732	-7.11132E-05
8.734	-7.16806E-05
8.736	-7.24005E-05
8.738	-7.32634E-05
8.74	-7.42598E-05
8.742	-7.53707E-05
8.744	-7.65673E-05
8.746	-7.7826E-05
8.748	-7.91228E-05
8.75	-8.04291E-05
8.752	-8.17116E-05
8.754	-8.29416E-05
8.756	-8.40763E-05
8.758	-8.50822E-05
8.76	-8.59213E-05
8.762	-8.6565E-05
8.764	-8.6994E-05
8.766	-8.71847E-05
8.768	-8.71228E-05
8.77	-8.677E-05
8.772	-8.61025E-05
8.774	-8.5087E-05
8.776	-8.37044E-05
8.778	-8.19452E-05
8.78	-7.98188E-05
8.782	-7.7354E-05
8.784	-7.45983E-05
8.786	-7.16138E-05
8.788	-6.84672E-05
8.79	-6.52443E-05
8.792	-6.20215E-05
8.794	-5.88939E-05
8.796	-5.59476E-05
8.798	-5.32586E-05
8.8	-5.08939E-05
8.802	-4.89011E-05
8.804	-4.72987E-05
8.806	-4.60892E-05
8.808	-4.52596E-05
8.81	-4.47881E-05
8.812	-4.46532E-05
8.814	-4.48329E-05
8.816	-4.53054E-05
8.818	-4.60448E-05
8.82	-4.70164E-05
8.822	-4.81812E-05
8.824	-4.94827E-05
8.826	-5.08844E-05
8.828	-5.23385E-05
8.83	-5.3826E-05
8.832	-5.53421E-05
8.834	-5.69058E-05
8.836	-5.8565E-05
8.838	-6.03957E-05
8.84	-6.24934E-05
8.842	-6.49964E-05
8.844	-6.80524E-05
8.846	-7.18141E-05
8.848	-7.64386E-05
8.85	-8.20358E-05
8.852	-8.86627E-05
8.854	-9.62908E-05
8.856	-0.000104815
8.858	-0.000114017
8.86	-0.000123585
8.862	-0.00013313
8.864	-0.000142203
8.866	-0.000150308
8.868	-0.000156958
8.87	-0.000161692
8.872	-0.000164157
8.874	-0.000164119
8.876	-0.00016153
8.878	-0.000156577
8.88	-0.000149678
8.882	-0.000141507
8.884	-0.000132939
8.886	-0.000125039
8.888	-0.000118951
8.89	-0.000115833
8.892	-0.000116725
8.894	-0.000122431
8.896	-0.000133411
8.898	-0.00014964
8.9	-0.000170522
8.902	-0.000194818
8.904	-0.000220653
8.906	-0.000245554
8.908	-0.000266565
8.91	-0.00028041
8.912	-0.000283747
8.914	-0.000273421
8.916	-0.000246741
8.918	-0.000201778
8.92	-0.000137611
8.922	-5.45221E-05
8.924	4.58541E-05
8.926	0.000160534
8.928	0.000285244
8.93	0.000414641
8.932	0.000542598
8.934	0.000662598
8.936	0.0007682
8.938	0.00085354
8.94	0.000913707
8.942	0.000945125
8.944	0.000945936
8.946	0.000915948
8.948	0.000856877
8.95	0.000772014
8.952	0.000666079
8.954	0.000544744
8.956	0.000414403
8.958	0.000281473
8.96	0.000152124
8.962	3.1836E-05
8.964	-7.48844E-05
8.966	-0.000164706
8.968	-0.000235576
8.97	-0.000286708
8.972	-0.000318498
8.974	-0.000332362
8.976	-0.000330522
8.978	-0.000315771
8.98	-0.000291228
8.982	-0.000260076
8.984	-0.000225373
8.986	-0.000189869
8.988	-0.000155852
8.99	-0.000125106
8.992	-9.88462E-05
8.994	-7.77688E-05
8.996	-6.20644E-05
8.998	-5.15185E-05
9	-4.55824E-05
9.002	-4.34851E-05
9.004	-4.4318E-05
9.006	-4.71337E-05
9.008	-5.10274E-05
9.01	-5.52086E-05
9.012	-5.90322E-05
9.014	-6.20358E-05
9.016	-6.39333E-05
9.018	-6.46007E-05
9.02	-6.40572E-05
9.022	-6.24267E-05
9.024	-5.99142E-05
9.026	-5.6758E-05
9.028	-5.32205E-05
9.03	-4.95447E-05
9.032	-4.59528E-05
9.034	-4.26041E-05
9.036	-3.96048E-05
9.038	-3.69983E-05
9.04	-3.47771E-05
9.042	-3.28925E-05
9.044	-3.1272E-05
9.046	-2.98336E-05
9.048	-2.84977E-05
9.05	-2.71909E-05
9.052	-2.58532E-05
9.054	-2.44358E-05
9.056	-2.29082E-05
9.058	-2.12544E-05
9.06	-1.94779E-05
9.062	-1.75981E-05
9.064	-1.56439E-05
9.066	-1.36496E-05
9.068	-1.16434E-05
9.07	-9.641E-06
9.072	-7.64482E-06
9.074	-5.64148E-06
9.076	-3.60734E-06
9.078	-1.5117E-06
9.08	6.80238E-07
9.082	3.00691E-06
9.084	5.51132E-06
9.086	8.24172E-06
9.088	1.12501E-05
9.09	1.45883E-05
9.092	1.83037E-05
9.094	2.24329E-05
9.096	2.69988E-05
9.098	3.20105E-05
9.1	3.74675E-05
9.102	4.33616E-05
9.104	4.9683E-05
9.106	5.641E-05
9.108	6.35328E-05
9.11	7.10179E-05
9.112	7.88272E-05
9.114	8.69225E-05
9.116	9.52563E-05
9.118	0.000103781
9.12	0.000112462
9.122	0.000121259
9.124	0.000130145
9.126	0.000139085
9.128	0.000148048
9.13	0.000156992
9.132	0.000165883
9.134	0.00017467
9.136	0.000183328
9.138	0.000191824
9.14	0.000200148
9.142	0.000208281
9.144	0.000216205
9.146	0.000223905
9.148	0.000231356
9.15	0.000238527
9.152	0.000245383
9.154	0.00025189
9.156	0.000258002
9.158	0.000263657
9.16	0.000268772
9.162	0.00027324
9.164	0.00027693
9.166	0.00027969
9.168	0.000281359
9.17	0.000281788
9.172	0.000280815
9.174	0.000278322
9.176	0.000274203
9.178	0.000268386
9.18	0.000260834
9.182	0.000251571
9.184	0.000240653
9.186	0.0002282
9.188	0.000214379
9.19	0.000199409
9.192	0.000183518
9.194	0.000166956
9.196	0.000149983
9.198	0.00013283
9.2	0.000115723
9.202	9.88701E-05
9.204	8.24553E-05
9.206	6.66317E-05
9.208	5.15328E-05
9.21	3.72429E-05
9.212	2.38312E-05
9.214	1.13268E-05
9.216	-2.63242E-07
9.218	-1.09487E-05
9.22	-2.07495E-05
9.222	-2.96906E-05
9.224	-3.78031E-05
9.226	-4.51247E-05
9.228	-5.16996E-05
9.23	-5.75828E-05
9.232	-6.28319E-05
9.234	-6.74994E-05
9.236	-7.16424E-05
9.238	-7.53039E-05
9.24	-7.85268E-05
9.242	-8.13445E-05
9.244	-8.3795E-05
9.246	-8.5907E-05
9.248	-8.77187E-05
9.25	-8.92682E-05
9.252	-9.05697E-05
9.254	-9.16472E-05
9.256	-9.25149E-05
9.258	-9.31824E-05
9.26	-9.36687E-05
9.262	-9.39928E-05
9.264	-9.41883E-05
9.266	-9.42932E-05
9.268	-9.43361E-05
9.27	-9.43504E-05
9.272	-9.43504E-05
9.274	-9.43456E-05
9.276	-9.43456E-05
9.278	-9.43409E-05
9.28	-9.43218E-05
9.282	-9.42837E-05
9.284	-9.42026E-05
9.286	-9.40548E-05
9.288	-9.37974E-05
9.29	-9.34064E-05
9.292	-9.28486E-05
9.294	-9.21049E-05
9.296	-9.11752E-05
9.298	-9.00834E-05
9.3	-8.88629E-05
9.302	-8.75566E-05
9.304	-8.62122E-05
9.306	-8.4882E-05
9.308	-8.36186E-05
9.31	-8.24839E-05
9.312	-8.15209E-05
9.314	-8.07819E-05
9.316	-8.03051E-05
9.318	-8.01049E-05
9.32	-8.01812E-05
9.322	-8.05101E-05
9.324	-8.10536E-05
9.326	-8.17545E-05
9.328	-8.25602E-05
9.33	-8.34136E-05
9.332	-8.42574E-05
9.334	-8.50393E-05
9.336	-8.57068E-05
9.338	-8.62217E-05
9.34	-8.65411E-05
9.342	-8.66365E-05
9.344	-8.6503E-05
9.346	-8.61454E-05
9.348	-8.56019E-05
9.35	-8.49201E-05
9.352	-8.41478E-05
9.354	-8.33516E-05
9.356	-8.25983E-05
9.358	-8.19404E-05
9.36	-8.14493E-05
9.362	-8.11871E-05
9.364	-8.11967E-05
9.366	-8.15256E-05
9.368	-8.21836E-05
9.37	-8.31609E-05
9.372	-8.44243E-05
9.374	-8.59118E-05
9.376	-8.75566E-05
9.378	-8.92682E-05
9.38	-9.09797E-05
9.382	-9.26103E-05
9.384	-9.4093E-05
9.386	-9.53659E-05
9.388	-9.63814E-05
9.39	-9.71013E-05
9.392	-9.75066E-05
9.394	-9.76067E-05
9.396	-9.74303E-05
9.398	-9.70203E-05
9.4	-9.64386E-05
9.402	-9.57521E-05
9.404	-9.50226E-05
9.406	-9.43123E-05
9.408	-9.36591E-05
9.41	-9.31156E-05
9.412	-9.27151E-05
9.414	-9.24863E-05
9.416	-9.24434E-05
9.418	-9.25912E-05
9.42	-9.29154E-05
9.422	-9.33826E-05
9.424	-9.39547E-05
9.426	-9.45697E-05
9.428	-9.51895E-05
9.43	-9.57569E-05
9.432	-9.62384E-05
9.434	-9.65959E-05
9.436	-9.67962E-05
9.438	-9.682E-05
9.44	-9.66532E-05
9.442	-9.63051E-05
9.444	-9.5795E-05
9.446	-9.518E-05
9.448	-9.45125E-05
9.45	-9.38689E-05
9.452	-9.33206E-05
9.454	-9.29154E-05
9.456	-9.27008E-05
9.458	-9.26961E-05
9.46	-9.28963E-05
9.462	-9.32729E-05
9.464	-9.37831E-05
9.466	-9.43552E-05
9.468	-9.48939E-05
9.47	-9.52896E-05
9.472	-9.54136E-05
9.474	-9.51514E-05
9.476	-9.43886E-05
9.478	-9.30441E-05
9.48	-9.10846E-05
9.482	-8.85006E-05
9.484	-8.53254E-05
9.486	-8.164E-05
9.488	-7.75495E-05
9.49	-7.31728E-05
9.492	-6.86675E-05
9.494	-6.41955E-05
9.496	-5.9919E-05
9.498	-5.59857E-05
9.5	-5.25387E-05
9.502	-4.96687E-05
9.504	-4.74412E-05
9.506	-4.58813E-05
9.508	-4.49807E-05
9.51	-4.47075E-05
9.512	-4.50126E-05
9.514	-4.58369E-05
9.516	-4.71113E-05
9.518	-4.8758E-05
9.52	-5.06985E-05
9.522	-5.28343E-05
9.524	-5.50894E-05
9.526	-5.73826E-05
9.528	-5.96567E-05
9.53	-6.18832E-05
9.532	-6.40572E-05
9.534	-6.61979E-05
9.536	-6.83576E-05
9.538	-7.06126E-05
9.54	-7.30536E-05
9.542	-7.57902E-05
9.544	-7.89416E-05
9.546	-8.26174E-05
9.548	-8.69082E-05
9.55	-9.1857E-05
9.552	-9.74398E-05
9.554	-0.000103561
9.556	-0.000110036
9.558	-0.000116605
9.56	-0.000122937
9.562	-0.000128653
9.564	-0.000133359
9.566	-0.000136672
9.568	-0.000138255
9.57	-0.000137869
9.572	-0.000135395
9.574	-0.000130903
9.576	-0.000124658
9.578	-0.000117144
9.58	-0.000109073
9.582	-0.000101335
9.584	-9.49607E-05
9.586	-9.10322E-05
9.588	-9.05793E-05
9.59	-9.44887E-05
9.592	-0.000103356
9.594	-0.000117397
9.596	-0.000136329
9.598	-0.000159304
9.6	-0.000184844
9.602	-0.000210875
9.604	-0.000234775
9.606	-0.000253516
9.608	-0.000263838
9.61	-0.000262503
9.612	-0.00024657
9.614	-0.000213654
9.616	-0.000162222
9.618	-9.18045E-05
9.62	-3.17988E-06
9.622	0.00010154
9.624	0.000218932
9.626	0.000344372
9.628	0.000472262
9.63	0.000596377
9.632	0.000710274
9.634	0.000807723
9.636	0.000883194
9.638	0.000932253
9.64	0.00095199
9.642	0.000941168
9.644	0.000900262
9.646	0.000831514
9.648	0.000738832
9.65	0.000627223
9.652	0.000502598
9.654	0.000371361
9.656	0.000239852
9.658	0.000113979
9.66	-1.14021E-06
9.662	-0.00010143
9.664	-0.000184048
9.666	-0.000247423
9.668	-0.000291232
9.67	-0.000316272
9.672	-0.000324277
9.674	-0.000317707
9.676	-0.000299476
9.678	-0.000272749
9.68	-0.000240672
9.682	-0.000206198
9.684	-0.000171914
9.686	-0.000139914
9.688	-0.000111766
9.69	-8.84625E-05
9.692	-7.04648E-05
9.694	-5.77688E-05
9.696	-4.99785E-05
9.698	-4.64195E-05
9.7	-4.62207E-05
9.702	-4.84243E-05
9.704	-5.20763E-05
9.706	-5.62861E-05
9.708	-6.03099E-05
9.71	-6.35757E-05
9.712	-6.56973E-05
9.714	-6.64839E-05
9.716	-6.5907E-05
9.718	-6.4081E-05
9.72	-6.12205E-05
9.722	-5.75924E-05
9.724	-5.3497E-05
9.726	-4.923E-05
9.728	-4.50632E-05
9.73	-4.12143E-05
9.732	-3.78484E-05
9.734	-3.50617E-05
9.736	-3.28815E-05
9.738	-3.1271E-05
9.74	-3.01459E-05
9.742	-2.93878E-05
9.744	-2.88648E-05
9.746	-2.84462E-05
9.748	-2.80143E-05
9.75	-2.74703E-05
9.752	-2.67361E-05
9.754	-2.57569E-05
9.756	-2.45006E-05
9.758	-2.29588E-05
9.76	-2.11452E-05
9.762	-1.90923E-05
9.764	-1.68448E-05
9.766	-1.44524E-05
9.768	-1.19571E-05
9.77	-9.3888E-06
9.772	-6.76043E-06
9.774	-4.0707E-06
9.776	-1.30617E-06
9.778	1.55337E-06
9.78	4.53225E-06
9.782	7.65816E-06
9.784	1.0964E-05
9.786	1.44882E-05
9.788	1.82732E-05
9.79	2.23652E-05
9.792	2.68067E-05
9.794	3.16329E-05
9.796	3.68706E-05
9.798	4.25349E-05
9.8	4.86341E-05
9.802	5.51752E-05
9.804	6.21549E-05
9.806	6.95733E-05
9.808	7.7416E-05
9.81	8.56687E-05
9.812	9.42932E-05
9.814	0.000103242
9.816	0.000112458
9.818	0.000121878
9.82	0.000131452
9.822	0.000141111
9.824	0.000150803
9.826	0.000160472
9.828	0.00017006
9.83	0.000179509
9.832	0.000188777
9.834	0.000197812
9.836	0.000206603
9.838	0.000215132
9.84	0.000223414
9.842	0.000231456
9.844	0.000239271
9.846	0.000246865
9.848	0.000254231
9.85	0.000261344
9.852	0.000268162
9.854	0.000274627
9.856	0.000280648
9.858	0.000286126
9.86	0.000290927
9.862	0.000294889
9.864	0.000297845
9.866	0.000299609
9.868	0.000300019
9.87	0.000298918
9.872	0.0002962
9.874	0.00029179
9.876	0.000285664
9.878	0.000277836
9.88	0.000268362
9.882	0.000257359
9.884	0.000244973
9.886	0.00023139
9.888	0.000216844
9.89	0.000201573
9.892	0.000185821
9.894	0.000169831
9.896	0.000153821
9.898	0.000137988
9.9	0.000122484
9.902	0.000107456
9.904	9.30107E-05
9.906	7.92229E-05
9.908	6.61549E-05
9.91	5.38355E-05
9.912	4.22689E-05
9.914	3.14441E-05
9.916	2.13383E-05
9.918	1.19261E-05
9.92	3.18603E-06
9.922	-4.89821E-06
9.924	-1.23395E-05
9.926	-1.9149E-05
9.928	-2.53445E-05
9.93	-3.09497E-05
9.932	-3.59948E-05
9.934	-4.05159E-05
9.936	-4.45497E-05
9.938	-4.81335E-05
9.94	-5.13135E-05
9.942	-5.41216E-05
9.944	-5.66103E-05
9.946	-5.88272E-05
9.948	-6.08248E-05
9.95	-6.2646E-05
9.952	-6.43194E-05
9.954	-6.58689E-05
9.956	-6.72896E-05
9.958	-6.85769E-05
9.96	-6.97163E-05
9.962	-7.06985E-05
9.964	-7.15137E-05
9.966	-7.21573E-05
9.968	-7.26246E-05
9.97	-7.29154E-05
9.972	-7.3025E-05
9.974	-7.29631E-05
9.976	-7.27342E-05
9.978	-7.23671E-05
9.98	-7.18951E-05
9.982	-7.13516E-05
9.984	-7.07795E-05
9.986	-7.02169E-05
9.988	-6.96877E-05
9.99	-6.92062E-05
9.992	-6.87819E-05
9.994	-6.84243E-05
9.996	-6.81335E-05
9.998	-6.79046E-05
10	-6.77378E-05
10.002	-6.76234E-05
10.004	-6.75328E-05
10.006	-6.74517E-05
10.008	-6.73611E-05
10.01	-6.7242E-05
10.012	-6.70989E-05
10.014	-6.69368E-05
10.016	-6.67747E-05
10.018	-6.66317E-05
10.02	-6.65268E-05
10.022	-6.64696E-05
10.024	-6.64696E-05
10.026	-6.65316E-05
10.028	-6.66508E-05
10.03	-6.68367E-05
10.032	-6.70942E-05
10.034	-6.74136E-05
10.036	-6.77902E-05
10.038	-6.82145E-05
10.04	-6.86675E-05
10.042	-6.91442E-05
10.044	-6.96448E-05
10.046	-7.01645E-05
10.048	-7.07223E-05
10.05	-7.13278E-05
10.052	-7.19952E-05
10.054	-7.27199E-05
10.056	-7.35018E-05
10.058	-7.43218E-05
10.06	-7.51657E-05
10.062	-7.60143E-05
10.064	-7.68486E-05
10.066	-7.76591E-05
10.068	-7.84219E-05
10.07	-7.91275E-05
10.072	-7.97473E-05
10.074	-8.0267E-05
10.076	-8.06865E-05
10.078	-8.10107E-05
10.08	-8.12586E-05
10.082	-8.14541E-05
10.084	-8.16257E-05
10.086	-8.18021E-05
10.088	-8.19928E-05
10.09	-8.22169E-05
10.092	-8.24696E-05
10.094	-8.27509E-05
10.096	-8.3056E-05
10.098	-8.33897E-05
10.1	-8.37378E-05
10.102	-8.41001E-05
10.104	-8.44672E-05
10.106	-8.48248E-05
10.108	-8.51728E-05
10.11	-8.55066E-05
10.112	-8.58498E-05
10.114	-8.62169E-05
10.116	-8.66317E-05
10.118	-8.71228E-05
10.12	-8.76996E-05
10.122	-8.83766E-05
10.124	-8.91442E-05
10.126	-9.00072E-05
10.128	-9.09416E-05
10.13	-9.19428E-05
10.132	-9.29869E-05
10.134	-9.40501E-05
10.136	-9.50942E-05
10.138	-9.60858E-05
10.14	-9.69774E-05
10.142	-9.77306E-05
10.144	-9.8317E-05
10.146	-9.87223E-05
10.148	-9.89607E-05
10.15	-9.90417E-05
10.152	-9.89988E-05
10.154	-9.88653E-05
10.156	-9.86794E-05
10.158	-9.84887E-05
10.16	-9.83313E-05
10.162	-9.82551E-05
10.164	-9.8298E-05
10.166	-9.84982E-05
10.168	-9.88558E-05
10.17	-9.93659E-05
10.172	-9.99905E-05
10.174	-0.000100663
10.176	-0.000101311
10.178	-0.00010185
10.18	-0.000102193
10.182	-0.000102255
10.184	-0.00010195
10.186	-0.000101211
10.188	-9.99714E-05
10.19	-9.81883E-05
10.192	-9.58522E-05
10.194	-9.29774E-05
10.196	-8.96162E-05
10.198	-8.58594E-05
10.2	-8.18069E-05
10.202	-7.75924E-05
10.204	-7.33445E-05
10.206	-6.91967E-05
10.208	-6.52872E-05
10.21	-6.17402E-05
10.212	-5.86698E-05
10.214	-5.61812E-05
10.216	-5.43695E-05
10.218	-5.32872E-05
10.22	-5.29678E-05
10.222	-5.34112E-05
10.224	-5.4584E-05
10.226	-5.641E-05
10.228	-5.87986E-05
10.23	-6.16257E-05
10.232	-6.47485E-05
10.234	-6.80048E-05
10.236	-7.12277E-05
10.238	-7.42598E-05
10.24	-7.69678E-05
10.242	-7.92467E-05
10.244	-8.10632E-05
10.246	-8.24458E-05
10.248	-8.34946E-05
10.25	-8.43528E-05
10.252	-8.52205E-05
10.254	-8.6317E-05
10.256	-8.78474E-05
10.258	-9.00072E-05
10.26	-9.29297E-05
10.262	-9.66818E-05
10.264	-0.000101244
10.266	-0.000106498
10.268	-0.0001122
10.27	-0.000118026
10.272	-0.000123561
10.274	-0.000128338
10.276	-0.0001319
10.278	-0.000133826
10.28	-0.000133807
10.282	-0.000131671
10.284	-0.000127456
10.286	-0.000121406
10.288	-0.000114002
10.29	-0.000105959
10.292	-9.82026E-05
10.294	-9.18093E-05
10.296	-8.79142E-05
10.298	-8.76329E-05
10.3	-9.18999E-05
10.302	-0.000101373
10.304	-0.000116257
10.306	-0.000136243
10.308	-0.0001604
10.31	-0.000187156
10.312	-0.000214317
10.314	-0.000239142
10.316	-0.000258484
10.318	-0.000268992
10.32	-0.000267342
10.322	-0.000250522
10.324	-0.000216129
10.326	-0.000162641
10.328	-8.96687E-05
10.33	1.89373E-06
10.332	0.000109788
10.334	0.000230398
10.336	0.000358927
10.338	0.000489631
10.34	0.000616114
10.342	0.000731824
10.344	0.000830513
10.346	0.000906603
10.348	0.000955662
10.35	0.000974827
10.352	0.000962908
10.354	0.000920524
10.356	0.00085006
10.358	0.000755471
10.36	0.000642002
10.362	0.000515614
10.364	0.000382813
10.366	0.000249983
10.368	0.00012307
10.37	7.21669E-06
10.372	-9.34923E-05
10.374	-0.0001762
10.376	-0.000239347
10.378	-0.000282622
10.38	-0.000306861
10.382	-0.000313859
10.384	-0.000306131
10.386	-0.000286665
10.388	-0.00025866
10.39	-0.000225325
10.392	-0.000189645
10.394	-0.000154231
10.396	-0.00012123
10.398	-9.22336E-05
10.4	-6.82622E-05
10.402	-4.98021E-05
10.404	-3.68296E-05
10.406	-2.89335E-05
10.408	-2.53931E-05
10.41	-2.52987E-05
10.412	-2.76591E-05
10.414	-3.14923E-05
10.416	-3.59037E-05
10.418	-4.01387E-05
10.42	-4.36157E-05
10.422	-4.59442E-05
10.424	-4.69192E-05
10.426	-4.65106E-05
10.428	-4.48319E-05
10.43	-4.21058E-05
10.432	-3.86212E-05
10.434	-3.46903E-05
10.436	-3.06126E-05
10.438	-2.66455E-05
10.44	-2.29874E-05
10.442	-1.97702E-05
10.444	-1.70627E-05
10.446	-1.48725E-05
10.448	-1.31585E-05
10.45	-1.18393E-05
10.452	-1.08029E-05
10.454	-9.92086E-06
10.456	-9.06269E-06
10.458	-8.10822E-06
10.46	-6.96067E-06
10.462	-5.55471E-06
10.464	-3.8575E-06
10.466	-1.86451E-06
10.468	4.06718E-07
10.47	2.92467E-06
10.472	5.65006E-06
10.474	8.53874E-06
10.476	1.15461E-05
10.478	1.46269E-05
10.48	1.77392E-05
10.482	2.08505E-05
10.484	2.39423E-05
10.486	2.70155E-05
10.488	3.00896E-05
10.49	3.32014E-05
10.492	3.6399E-05
10.494	3.97368E-05
10.496	4.32701E-05
10.498	4.7056E-05
10.5	5.11514E-05
10.502	5.56091E-05
10.504	6.04958E-05
10.506	6.58594E-05
10.508	7.17473E-05
10.51	7.81883E-05
10.512	8.51871E-05
10.514	9.27247E-05
10.516	0.000100772
10.518	0.000109273
10.52	0.00011816
10.522	0.000127361
10.524	0.000136796
10.526	0.000146374
10.528	0.000156014
10.53	0.000165621
10.532	0.000175113
10.534	0.000184424
10.536	0.000193511
10.538	0.000202346
10.54	0.000210932
10.542	0.000219285
10.544	0.000227428
10.546	0.000235385
10.548	0.000243199
10.55	0.000250889
10.552	0.000258484
10.554	0.000266012
10.556	0.000273478
10.558	0.000280877
10.56	0.000288176
10.562	0.000295313
10.564	0.000302184
10.566	0.000308667
10.568	0.000314603
10.57	0.000319828
10.572	0.000324153
10.574	0.000327395
10.576	0.000329359
10.578	0.000329859
10.58	0.000328729
10.582	0.000325831
10.584	0.000321063
10.586	0.000314379
10.588	0.000305793
10.59	0.00029539
10.592	0.00028329
10.594	0.000269673
10.596	0.000254756
10.598	0.000238779
10.6	0.000222002
10.602	0.000204691
10.604	0.000187108
10.606	0.000169511
10.608	0.000152119
10.61	0.000135128
10.612	0.000118679
10.614	0.000102894
10.616	8.78379E-05
10.618	7.3559E-05
10.62	6.00954E-05
10.622	4.74555E-05
10.624	3.56558E-05
10.626	2.46961E-05
10.628	1.45735E-05
10.63	5.27819E-06
10.632	-3.20272E-06
10.634	-1.08815E-05
10.636	-1.77697E-05
10.638	-2.38799E-05
10.64	-2.92277E-05
10.642	-3.38393E-05
10.644	-3.77545E-05
10.646	-4.10288E-05
10.648	-4.37316E-05
10.65	-4.59385E-05
10.652	-4.77282E-05
10.654	-4.91681E-05
10.656	-5.03218E-05
10.658	-5.12467E-05
10.66	-5.19952E-05
10.662	-5.26055E-05
10.664	-5.31156E-05
10.666	-5.35685E-05
10.668	-5.39738E-05
10.67	-5.43504E-05
10.672	-5.46889E-05
10.674	-5.4994E-05
10.676	-5.52563E-05
10.678	-5.5466E-05
10.68	-5.56377E-05
10.682	-5.57712E-05
10.684	-5.58808E-05
10.686	-5.59666E-05
10.688	-5.60381E-05
10.69	-5.60906E-05
10.692	-5.6124E-05
10.694	-5.61526E-05
10.696	-5.61764E-05
10.698	-5.62145E-05
10.7	-5.62861E-05
10.702	-5.63909E-05
10.704	-5.65435E-05
10.706	-5.6739E-05
10.708	-5.69774E-05
10.71	-5.72539E-05
10.712	-5.75781E-05
10.714	-5.79547E-05
10.716	-5.83838E-05
10.718	-5.88749E-05
10.72	-5.94184E-05
10.722	-6.00048E-05
10.724	-6.0615E-05
10.726	-6.12253E-05
10.728	-6.1826E-05
10.73	-6.24076E-05
10.732	-6.29511E-05
10.734	-6.34565E-05
10.736	-6.39094E-05
10.738	-6.42861E-05
10.74	-6.45769E-05
10.742	-6.47676E-05
10.744	-6.48439E-05
10.746	-6.48153E-05
10.748	-6.46913E-05
10.75	-6.44911E-05
10.752	-6.42336E-05
10.754	-6.39476E-05
10.756	-6.36424E-05
10.758	-6.33516E-05
10.76	-6.30846E-05
10.762	-6.28749E-05
10.764	-6.27414E-05
10.766	-6.27128E-05
10.768	-6.27938E-05
10.77	-6.2994E-05
10.772	-6.32944E-05
10.774	-6.36853E-05
10.776	-6.41478E-05
10.778	-6.46579E-05
10.78	-6.52062E-05
10.782	-6.57878E-05
10.784	-6.64076E-05
10.786	-6.70608E-05
10.788	-6.77616E-05
10.79	-6.85101E-05
10.792	-6.93302E-05
10.794	-7.02408E-05
10.796	-7.12706E-05
10.798	-7.24529E-05
10.8	-7.38164E-05
10.802	-7.53707E-05
10.804	-7.71156E-05
10.806	-7.90322E-05
10.808	-8.1087E-05
10.81	-8.3242E-05
10.812	-8.54541E-05
10.814	-8.7671E-05
10.816	-8.98641E-05
10.818	-9.19762E-05
10.82	-9.39785E-05
10.822	-9.58236E-05
10.824	-9.74827E-05
10.826	-9.89368E-05
10.828	-0.000100176
10.83	-0.000101221
10.832	-0.000102083
10.834	-0.000102803
10.836	-0.000103418
10.838	-0.000103962
10.84	-0.000104482
10.842	-0.000105011
10.844	-0.000105597
10.846	-0.000106269
10.848	-0.00010707
10.85	-0.000108024
10.852	-0.000109135
10.854	-0.000110384
10.856	-0.000111738
10.858	-0.000113149
10.86	-0.000114565
10.862	-0.000115914
10.864	-0.000117149
10.866	-0.000118207
10.868	-0.000119051
10.87	-0.000119628
10.872	-0.000119909
10.874	-0.000119871
10.876	-0.000119504
10.878	-0.000118813
10.88	-0.000117812
10.882	-0.000116524
10.884	-0.00011497
10.886	-0.000113163
10.888	-0.000111099
10.89	-0.000108772
10.892	-0.000106174
10.894	-0.000103294
10.896	-0.000100138
10.898	-9.67247E-05
10.9	-9.30918E-05
10.902	-8.92872E-05
10.904	-8.53826E-05
10.906	-8.14541E-05
10.908	-7.75971E-05
10.91	-7.39166E-05
10.912	-7.05173E-05
10.914	-6.75185E-05
10.916	-6.50107E-05
10.918	-6.30799E-05
10.92	-6.17688E-05
10.922	-6.11061E-05
10.924	-6.10727E-05
10.926	-6.16448E-05
10.928	-6.27604E-05
10.93	-6.43528E-05
10.932	-6.63313E-05
10.934	-6.85959E-05
10.936	-7.10274E-05
10.938	-7.35161E-05
10.94	-7.59476E-05
10.942	-7.82312E-05
10.944	-8.03004E-05
10.946	-8.21311E-05
10.948	-8.37473E-05
10.95	-8.52014E-05
10.952	-8.65983E-05
10.954	-8.80524E-05
10.956	-8.97163E-05
10.958	-9.17378E-05
10.96	-9.42646E-05
10.962	-9.74255E-05
10.964	-0.000101311
10.966	-0.000105945
10.968	-0.000111275
10.97	-0.000117163
10.972	-0.000123366
10.974	-0.000129559
10.976	-0.000135356
10.978	-0.000140348
10.98	-0.000144105
10.982	-0.000146265
10.984	-0.000146541
10.986	-0.000144782
10.988	-0.000141006
10.99	-0.000135442
10.992	-0.000128544
10.994	-0.000120982
10.996	-0.000113631
10.998	-0.000107509
11	-0.00010369
11.002	-0.000103209
11.004	-0.000106937
11.006	-0.000115466
11.008	-0.000128977
11.01	-0.000147166
11.012	-0.000169135
11.014	-0.000193402
11.016	-0.000217883
11.018	-0.000239986
11.02	-0.000256734
11.022	-0.000264968
11.024	-0.000261578
11.026	-0.000243795
11.028	-0.000209445
11.03	-0.000157235
11.032	-8.69559E-05
11.034	3.43209E-07
11.036	0.000102331
11.038	0.000215404
11.04	0.000334837
11.042	0.000455046
11.044	0.000569917
11.046	0.000673182
11.048	0.000758999
11.05	0.000822217
11.052	0.000858927
11.054	0.000866698
11.056	0.000844815
11.058	0.000794231
11.06	0.000717759
11.062	0.000619404
11.064	0.000504553
11.066	0.000379128
11.068	0.000249378
11.07	0.000121426
11.072	8.27032E-07
11.074	-0.000107733
11.076	-0.000200672
11.078	-0.000275633
11.08	-0.000331509
11.082	-0.000368381
11.084	-0.000387347
11.086	-0.000390346
11.088	-0.0003799
11.09	-0.00035888
11.092	-0.000330298
11.094	-0.000297073
11.096	-0.000261888
11.098	-0.000227056
11.1	-0.000194436
11.102	-0.000165383
11.104	-0.000140768
11.106	-0.000120982
11.108	-0.000106036
11.11	-9.55948E-05
11.112	-8.91013E-05
11.114	-8.58403E-05
11.116	-8.50203E-05
11.118	-8.58451E-05
11.12	-8.75757E-05
11.122	-8.95685E-05
11.124	-9.12992E-05
11.126	-9.24005E-05
11.128	-9.26484E-05
11.13	-9.19571E-05
11.132	-9.036E-05
11.134	-8.79714E-05
11.136	-8.49678E-05
11.138	-8.15399E-05
11.14	-7.78927E-05
11.142	-7.41979E-05
11.144	-7.06126E-05
11.146	-6.72563E-05
11.148	-6.41955E-05
11.15	-6.14684E-05
11.152	-5.90465E-05
11.154	-5.68915E-05
11.156	-5.49273E-05
11.158	-5.30632E-05
11.16	-5.12181E-05
11.162	-4.93302E-05
11.164	-4.73435E-05
11.166	-4.52358E-05
11.168	-4.29945E-05
11.17	-4.06198E-05
11.172	-3.81187E-05
11.174	-3.55032E-05
11.176	-3.27867E-05
11.178	-2.99852E-05
11.18	-2.71118E-05
11.182	-2.41745E-05
11.184	-2.11709E-05
11.186	-1.80849E-05
11.188	-1.48896E-05
11.19	-1.1549E-05
11.192	-8.02622E-06
11.194	-4.28844E-06
11.196	-3.11428E-07
11.198	3.92024E-06
11.2	8.41526E-06
11.202	1.3179E-05
11.204	1.82145E-05
11.206	2.35247E-05
11.208	2.91085E-05
11.21	3.49592E-05
11.212	4.10656E-05
11.214	4.74122E-05
11.216	5.39833E-05
11.218	6.07771E-05
11.22	6.7795E-05
11.222	7.50513E-05
11.224	8.25697E-05
11.226	9.03647E-05
11.228	9.84601E-05
11.23	0.000106865
11.232	0.000115571
11.234	0.000124572
11.236	0.000133845
11.238	0.000143366
11.24	0.000153097
11.242	0.00016298
11.244	0.000172958
11.246	0.000182942
11.248	0.000192853
11.25	0.000202598
11.252	0.0002121
11.254	0.000221297
11.256	0.000230145
11.258	0.000238608
11.26	0.000246675
11.262	0.000254341
11.264	0.000261597
11.266	0.000268443
11.268	0.00027488
11.27	0.000280887
11.272	0.000286431
11.274	0.000291466
11.276	0.000295895
11.278	0.00029959
11.28	0.000302393
11.282	0.000304124
11.284	0.000304582
11.286	0.00030359
11.288	0.000300982
11.29	0.000296634
11.292	0.00029047
11.294	0.00028246
11.296	0.000272634
11.298	0.000261073
11.3	0.000247924
11.302	0.000233383
11.304	0.000217692
11.306	0.00020113
11.308	0.00018399
11.31	0.000166565
11.312	0.000149125
11.314	0.000131924
11.316	0.000115166
11.318	9.90274E-05
11.32	8.3652E-05
11.322	6.91442E-05
11.324	5.55662E-05
11.326	4.29459E-05
11.328	3.12858E-05
11.33	2.0554E-05
11.332	1.07018E-05
11.334	1.67228E-06
11.336	-6.5907E-06
11.338	-1.41373E-05
11.34	-2.10131E-05
11.342	-2.72577E-05
11.344	-3.29106E-05
11.346	-3.80129E-05
11.348	-4.26064E-05
11.35	-4.67328E-05
11.352	-5.04267E-05
11.354	-5.37259E-05
11.356	-5.66532E-05
11.358	-5.92324E-05
11.36	-6.1497E-05
11.362	-6.34756E-05
11.364	-6.52014E-05
11.366	-6.6708E-05
11.368	-6.80286E-05
11.37	-6.91776E-05
11.372	-7.01692E-05
11.374	-7.10083E-05
11.376	-7.16949E-05
11.378	-7.22431E-05
11.38	-7.26579E-05
11.382	-7.29535E-05
11.384	-7.31395E-05
11.386	-7.323E-05
11.388	-7.32253E-05
11.39	-7.31347E-05
11.392	-7.29583E-05
11.394	-7.27199E-05
11.396	-7.24386E-05
11.398	-7.21335E-05
11.4	-7.18379E-05
11.402	-7.15662E-05
11.404	-7.13373E-05
11.406	-7.11561E-05
11.408	-7.10131E-05
11.41	-7.09082E-05
11.412	-7.08319E-05
11.414	-7.07652E-05
11.416	-7.07032E-05
11.418	-7.06126E-05
11.42	-7.04744E-05
11.422	-7.02598E-05
11.424	-6.99309E-05
11.426	-6.94779E-05
11.428	-6.88915E-05
11.43	-6.81907E-05
11.432	-6.73945E-05
11.434	-6.65411E-05
11.436	-6.56734E-05
11.438	-6.48248E-05
11.44	-6.40429E-05
11.442	-6.33564E-05
11.444	-6.28081E-05
11.446	-6.24267E-05
11.448	-6.2236E-05
11.45	-6.22598E-05
11.452	-6.24839E-05
11.454	-6.28987E-05
11.456	-6.34565E-05
11.458	-6.41192E-05
11.46	-6.48343E-05
11.462	-6.55447E-05
11.464	-6.62169E-05
11.466	-6.68129E-05
11.468	-6.73039E-05
11.47	-6.76806E-05
11.472	-6.79237E-05
11.474	-6.80477E-05
11.476	-6.80715E-05
11.478	-6.80286E-05
11.48	-6.79666E-05
11.482	-6.79428E-05
11.484	-0.000068
11.486	-6.81669E-05
11.488	-6.84625E-05
11.49	-6.88772E-05
11.492	-6.93826E-05
11.494	-6.99404E-05
11.496	-7.0503E-05
11.498	-7.10083E-05
11.5	-7.14088E-05
11.502	-7.16472E-05
11.504	-7.16758E-05
11.506	-7.14565E-05
11.508	-7.09845E-05
11.51	-7.02694E-05
11.512	-6.93635E-05
11.514	-6.83337E-05
11.516	-6.72753E-05
11.518	-6.62884E-05
11.52	-6.54636E-05
11.522	-6.48915E-05
11.524	-6.46341E-05
11.526	-6.4739E-05
11.528	-6.52253E-05
11.53	-6.6093E-05
11.532	-6.72992E-05
11.534	-6.87914E-05
11.536	-7.04744E-05
11.538	-7.22336E-05
11.54	-7.39499E-05
11.542	-7.54899E-05
11.544	-7.67437E-05
11.546	-7.76067E-05
11.548	-7.80072E-05
11.55	-7.78927E-05
11.552	-7.723E-05
11.554	-7.60238E-05
11.556	-7.42837E-05
11.558	-7.20524E-05
11.56	-6.94017E-05
11.562	-6.64172E-05
11.564	-6.32133E-05
11.566	-5.99046E-05
11.568	-5.66055E-05
11.57	-5.34255E-05
11.572	-5.0441E-05
11.574	-4.77187E-05
11.576	-4.53044E-05
11.578	-4.32234E-05
11.58	-4.14913E-05
11.582	-4.01097E-05
11.584	-3.90679E-05
11.586	-3.83428E-05
11.588	-3.79004E-05
11.59	-3.77015E-05
11.592	-3.77044E-05
11.594	-3.78703E-05
11.596	-3.81673E-05
11.598	-3.85683E-05
11.6	-3.90532E-05
11.602	-3.96072E-05
11.604	-4.02226E-05
11.606	-4.09077E-05
11.608	-4.16906E-05
11.61	-4.26269E-05
11.612	-4.38041E-05
11.614	-4.53325E-05
11.616	-4.73402E-05
11.618	-4.99547E-05
11.62	-5.32872E-05
11.622	-5.74112E-05
11.624	-6.23552E-05
11.626	-6.80954E-05
11.628	-7.45316E-05
11.63	-8.14875E-05
11.632	-8.87151E-05
11.634	-9.58999E-05
11.636	-0.000102656
11.638	-0.000108567
11.64	-0.000113225
11.642	-0.000116238
11.644	-0.000117321
11.646	-0.000116286
11.648	-0.000113135
11.65	-0.000108029
11.652	-0.000101359
11.654	-9.3702E-05
11.656	-8.58403E-05
11.658	-7.86937E-05
11.66	-7.32968E-05
11.662	-7.06937E-05
11.664	-7.18427E-05
11.666	-7.75018E-05
11.668	-8.81192E-05
11.67	-0.00010369
11.672	-0.000123704
11.674	-0.000147051
11.676	-0.000172043
11.678	-0.000196424
11.68	-0.000217497
11.682	-0.000232234
11.684	-0.000237507
11.686	-0.000230336
11.688	-0.000208124
11.69	-0.000168977
11.692	-0.000111924
11.694	-3.71375E-05
11.696	5.39356E-05
11.698	0.000158536
11.7	0.000272691
11.702	0.000391361
11.704	0.000508749
11.706	0.000618737
11.708	0.000715089
11.71	0.000792229
11.712	0.000845387
11.714	0.000871228
11.716	0.00086789
11.718	0.000835232
11.72	0.00077497
11.722	0.000690441
11.724	0.000586174
11.726	0.000467809
11.728	0.000341511
11.73	0.000213492
11.732	8.96496E-05
11.734	-2.48386E-05
11.736	-0.000125774
11.738	-0.000210117
11.74	-0.000276086
11.742	-0.000323108
11.744	-0.000351743
11.746	-0.000363466
11.748	-0.000360496
11.75	-0.000345521
11.752	-0.000321464
11.754	-0.000291256
11.756	-0.000257673
11.758	-0.00022317
11.76	-0.000189788
11.762	-0.000159104
11.764	-0.000132215
11.766	-0.00010975
11.768	-9.19142E-05
11.77	-7.85554E-05
11.772	-6.92443E-05
11.774	-6.33516E-05
11.776	-6.01573E-05
11.778	-5.89035E-05
11.78	-5.88701E-05
11.782	-5.94279E-05
11.784	-6.0062E-05
11.786	-6.03862E-05
11.788	-6.01335E-05
11.79	-5.918E-05
11.792	-5.75018E-05
11.794	-5.51657E-05
11.796	-5.23051E-05
11.798	-4.9087E-05
11.8	-4.56963E-05
11.802	-4.22894E-05
11.804	-3.89974E-05
11.806	-3.5908E-05
11.808	-3.30694E-05
11.81	-3.04925E-05
11.812	-2.81616E-05
11.814	-2.6042E-05
11.816	-2.40844E-05
11.818	-2.22312E-05
11.82	-2.04229E-05
11.822	-1.86002E-05
11.824	-1.67156E-05
11.826	-1.47323E-05
11.828	-1.26312E-05
11.83	-1.04081E-05
11.832	-8.06818E-06
11.834	-5.61859E-06
11.836	-3.06446E-06
11.838	-4.0359E-07
11.84	2.37182E-06
11.842	5.27199E-06
11.844	8.30465E-06
11.846	1.14722E-05
11.848	1.47733E-05
11.85	1.82002E-05
11.852	2.17468E-05
11.854	2.54074E-05
11.856	2.91785E-05
11.858	3.30579E-05
11.86	3.70412E-05
11.862	4.11256E-05
11.864	4.5312E-05
11.866	4.96067E-05
11.868	5.40358E-05
11.87	5.86269E-05
11.872	6.34422E-05
11.874	6.85387E-05
11.876	7.39785E-05
11.878	7.98188E-05
11.88	8.61073E-05
11.882	9.28725E-05
11.884	0.000100143
11.886	0.000107919
11.888	0.000116186
11.89	0.000124925
11.892	0.000134088
11.894	0.0001436
11.896	0.000153373
11.898	0.000163309
11.9	0.000173287
11.902	0.000183213
11.904	0.000192982
11.906	0.000202527
11.908	0.000211771
11.91	0.000220677
11.912	0.000229206
11.914	0.000237335
11.916	0.000245058
11.918	0.000252372
11.92	0.000259299
11.922	0.000265845
11.924	0.000272024
11.926	0.000277821
11.928	0.000283204
11.93	0.00028811
11.932	0.000292443
11.934	0.000296091
11.936	0.000298913
11.938	0.000300777
11.94	0.00030153
11.942	0.000301035
11.944	0.000299147
11.946	0.000295762
11.948	0.000290779
11.95	0.000284153
11.952	0.000275881
11.954	0.000266021
11.956	0.00025466
11.958	0.000241959
11.96	0.000228091
11.962	0.000213259
11.964	0.000197688
11.966	0.000181602
11.968	0.000165235
11.97	0.00014881
11.972	0.000132529
11.974	0.000116586
11.976	0.000101125
11.978	8.62694E-05
11.98	7.2081E-05
11.982	5.86079E-05
11.984	4.58598E-05
11.986	3.38269E-05
11.988	2.24882E-05
11.99	1.18131E-05
11.992	1.76572E-06
11.994	-7.6944E-06
11.996	-1.66083E-05
11.998	-2.50141E-05
12	-3.29402E-05
12.002	-4.04029E-05
12.004	-4.74045E-05
12.006	-5.39356E-05
12.008	-5.99809E-05
12.01	-6.55209E-05
12.012	-7.05459E-05
12.014	-7.50465E-05
12.016	-7.90274E-05
12.018	-8.24839E-05
12.02	-8.54303E-05
12.022	-8.78665E-05
12.024	-8.98212E-05
12.026	-9.13182E-05
12.028	-9.24148E-05
12.03	-9.31681E-05
12.032	-9.36639E-05
12.034	-9.39738E-05
12.036	-9.41883E-05
12.038	-9.43695E-05
12.04	-9.45888E-05
12.042	-9.48892E-05
12.044	-9.53087E-05
12.046	-9.5857E-05
12.048	-9.65435E-05
12.05	-9.73397E-05
12.052	-9.81979E-05
12.054	-9.9056E-05
12.056	-9.98284E-05
12.058	-0.000100439
12.06	-0.00010082
12.062	-0.00010092
12.064	-0.00010072
12.066	-0.000100224
12.068	-9.94565E-05
12.07	-9.84648E-05
12.072	-9.73015E-05
12.074	-9.60286E-05
12.076	-9.47175E-05
12.078	-9.34303E-05
12.08	-9.22288E-05
12.082	-9.11657E-05
12.084	-9.02694E-05
12.086	-8.95495E-05
12.088	-8.90012E-05
12.09	-8.85959E-05
12.092	-8.83004E-05
12.094	-8.80858E-05
12.096	-8.79237E-05
12.098	-8.78045E-05
12.1	-8.77187E-05
12.102	-8.76663E-05
12.104	-8.76472E-05
12.106	-8.76663E-05
12.108	-8.77378E-05
12.11	-8.78617E-05
12.112	-8.8062E-05
12.114	-8.83433E-05
12.116	-8.87104E-05
12.118	-8.91585E-05
12.12	-8.96591E-05
12.122	-9.0174E-05
12.124	-9.06651E-05
12.126	-9.10846E-05
12.128	-9.14041E-05
12.13	-9.16043E-05
12.132	-9.16806E-05
12.134	-9.16424E-05
12.136	-9.15137E-05
12.138	-9.13182E-05
12.14	-9.10846E-05
12.142	-9.08558E-05
12.144	-9.06698E-05
12.146	-9.05793E-05
12.148	-9.06222E-05
12.15	-9.08319E-05
12.152	-9.1242E-05
12.154	-9.18522E-05
12.156	-9.26532E-05
12.158	-9.36353E-05
12.16	-9.477E-05
12.162	-9.60477E-05
12.164	-9.74398E-05
12.166	-9.89416E-05
12.168	-0.000100529
12.17	-0.000102193
12.172	-0.000103905
12.174	-0.000105654
12.176	-0.000107423
12.178	-0.000109201
12.18	-0.00011098
12.182	-0.000112734
12.184	-0.000114451
12.186	-0.000116086
12.188	-0.000117588
12.19	-0.000118894
12.192	-0.000119928
12.194	-0.000120634
12.196	-0.000120954
12.198	-0.000120858
12.2	-0.000120329
12.202	-0.00011938
12.204	-0.000118041
12.206	-0.000116372
12.208	-0.000114446
12.21	-0.000112372
12.212	-0.000110265
12.214	-0.000108243
12.216	-0.000106422
12.218	-0.000104882
12.22	-0.00010369
12.222	-0.000102861
12.224	-0.000102393
12.226	-0.000102246
12.228	-0.000102374
12.23	-0.000102713
12.232	-0.000103199
12.234	-0.000103762
12.236	-0.000104338
12.238	-0.000104849
12.24	-0.00010524
12.242	-0.000105454
12.244	-0.000105459
12.246	-0.000105244
12.248	-0.000104825
12.25	-0.000104229
12.252	-0.000103523
12.254	-0.000102789
12.256	-0.000102126
12.258	-0.000101669
12.26	-0.000101564
12.262	-0.000101983
12.264	-0.000103075
12.266	-0.000104992
12.268	-0.000107819
12.27	-0.000111595
12.272	-0.000116272
12.274	-0.000121707
12.276	-0.000127685
12.278	-0.000133897
12.28	-0.000139986
12.282	-0.00014554
12.284	-0.000150122
12.286	-0.00015333
12.288	-0.000154808
12.29	-0.000154303
12.292	-0.000151714
12.294	-0.000147123
12.296	-0.00014082
12.298	-0.000133316
12.3	-0.000125316
12.302	-0.000117697
12.304	-0.000111452
12.306	-0.0001076
12.308	-0.000107123
12.31	-0.000110832
12.312	-0.000119275
12.314	-0.000132625
12.316	-0.000150565
12.318	-0.000172229
12.32	-0.000196162
12.322	-0.000220343
12.324	-0.000242241
12.326	-0.000258961
12.328	-0.000267433
12.33	-0.000264615
12.332	-0.000247771
12.334	-0.000214722
12.336	-0.00016411
12.338	-9.56138E-05
12.34	-1.00973E-05
12.342	9.02884E-05
12.344	0.000202136
12.346	0.000320901
12.348	0.000441144
12.35	0.000556853
12.352	0.000661836
12.354	0.000750179
12.356	0.000816687
12.358	0.000857306
12.36	0.000869368
12.362	0.000851919
12.364	0.000805721
12.366	0.000733254
12.368	0.000638474
12.37	0.000526484
12.372	0.000403242
12.374	0.000274951
12.376	0.000147757
12.378	2.72706E-05
12.38	-8.17354E-05
12.382	-0.00017558
12.384	-0.0002518
12.386	-0.000309163
12.388	-0.000347628
12.39	-0.000368176
12.392	-0.000372658
12.394	-0.000363518
12.396	-0.0003436
12.398	-0.00031589
12.4	-0.000283309
12.402	-0.000248548
12.404	-0.000213917
12.406	-0.000181287
12.408	-0.000152033
12.41	-0.000127037
12.412	-0.000106727
12.414	-9.11466E-05
12.416	-7.99905E-05
12.418	-7.27294E-05
12.42	-6.86532E-05
12.422	-6.69797E-05
12.424	-6.69225E-05
12.426	-6.77426E-05
12.428	-6.88153E-05
12.43	-6.96448E-05
12.432	-6.98832E-05
12.434	-6.93159E-05
12.436	-6.78617E-05
12.438	-6.55399E-05
12.44	-6.24553E-05
12.442	-5.87652E-05
12.444	-5.46746E-05
12.446	-5.03838E-05
12.448	-4.60973E-05
12.45	-4.19847E-05
12.452	-3.81754E-05
12.454	-3.47523E-05
12.456	-3.17511E-05
12.458	-2.91695E-05
12.46	-2.69774E-05
12.462	-2.51271E-05
12.464	-2.35633E-05
12.466	-2.2226E-05
12.468	-2.10532E-05
12.47	-1.99852E-05
12.472	-1.89635E-05
12.474	-1.79356E-05
12.476	-1.68567E-05
12.478	-1.5693E-05
12.48	-1.44176E-05
12.482	-1.30088E-05
12.484	-1.14446E-05
12.486	-9.70107E-06
12.488	-7.75161E-06
12.49	-5.57044E-06
12.492	-3.13959E-06
12.494	-4.51676E-07
12.496	2.48653E-06
12.498	5.65673E-06
12.5	9.03456E-06
12.502	1.2595E-05
12.504	1.63185E-05
12.506	2.01921E-05
12.508	2.42107E-05
12.51	2.83743E-05
12.512	3.2687E-05
12.514	3.71595E-05
12.516	4.18088E-05
12.518	4.66627E-05
12.52	5.17569E-05
12.522	5.71395E-05
12.524	6.28558E-05
12.526	6.8944E-05
12.528	7.54374E-05
12.53	8.23504E-05
12.532	8.96877E-05
12.534	9.7435E-05
12.536	0.000105573
12.538	0.000114074
12.54	0.000122903
12.542	0.000132
12.544	0.000141311
12.546	0.000150751
12.548	0.000160238
12.55	0.000169692
12.552	0.000179042
12.554	0.000188219
12.556	0.000197187
12.558	0.000205912
12.56	0.000214374
12.562	0.00022256
12.564	0.00023046
12.566	0.000238074
12.568	0.000245383
12.57	0.000252391
12.572	0.000259066
12.574	0.000265378
12.576	0.000271261
12.578	0.000276615
12.58	0.000281321
12.582	0.000285211
12.584	0.000288129
12.586	0.000289888
12.588	0.000290327
12.59	0.000289287
12.592	0.000286636
12.594	0.000282284
12.596	0.000276167
12.598	0.000268272
12.6	0.000258636
12.602	0.000247352
12.604	0.000234574
12.606	0.000220491
12.608	0.000205335
12.61	0.000189349
12.612	0.000172796
12.614	0.000155924
12.616	0.000138975
12.618	0.000122179
12.62	0.00010574
12.622	8.98403E-05
12.624	7.46269E-05
12.626	6.02193E-05
12.628	4.67018E-05
12.63	3.41168E-05
12.632	2.2481E-05
12.634	1.17893E-05
12.636	2.01912E-06
12.638	-6.86198E-06
12.64	-1.48977E-05
12.642	-2.21416E-05
12.644	-2.86584E-05
12.646	-3.45216E-05
12.648	-3.98079E-05
12.65	-4.45902E-05
12.652	-4.89344E-05
12.654	-5.2882E-05
12.656	-5.6472E-05
12.658	-5.97139E-05
12.66	-6.26269E-05
12.662	-6.52062E-05
12.664	-6.74565E-05
12.666	-6.93683E-05
12.668	-7.09368E-05
12.67	-7.21573E-05
12.672	-7.30155E-05
12.674	-7.35161E-05
12.676	-7.36591E-05
12.678	-7.34779E-05
12.68	-7.30107E-05
12.682	-7.23099E-05
12.684	-7.14327E-05
12.686	-7.04458E-05
12.688	-6.93969E-05
12.69	-6.83433E-05
12.692	-6.73325E-05
12.694	-6.64029E-05
12.696	-6.55971E-05
12.698	-6.49487E-05
12.7	-6.44768E-05
12.702	-6.41907E-05
12.704	-6.4081E-05
12.706	-6.4124E-05
12.708	-6.42765E-05
12.71	-6.45101E-05
12.712	-6.47771E-05
12.714	-6.50441E-05
12.716	-6.52729E-05
12.718	-6.54398E-05
12.72	-6.55113E-05
12.722	-6.54684E-05
12.724	-6.52968E-05
12.726	-6.49964E-05
12.728	-6.45816E-05
12.73	-6.40763E-05
12.732	-6.3528E-05
12.734	-6.29607E-05
12.736	-6.24219E-05
12.738	-6.19261E-05
12.74	-6.14875E-05
12.742	-6.11156E-05
12.744	-6.08057E-05
12.746	-6.05578E-05
12.748	-6.03719E-05
12.75	-6.02288E-05
12.752	-6.01192E-05
12.754	-6.00191E-05
12.756	-5.99142E-05
12.758	-5.97712E-05
12.76	-5.95805E-05
12.762	-5.93373E-05
12.764	-5.90369E-05
12.766	-5.86841E-05
12.768	-5.82932E-05
12.77	-5.78641E-05
12.772	-5.74017E-05
12.774	-5.69201E-05
12.776	-5.64195E-05
12.778	-5.59285E-05
12.78	-5.5466E-05
12.782	-5.50608E-05
12.784	-5.47318E-05
12.786	-5.44887E-05
12.788	-5.43409E-05
12.79	-5.42598E-05
12.792	-5.42408E-05
12.794	-5.42455E-05
12.796	-5.42646E-05
12.798	-5.42741E-05
12.8	-5.42551E-05
12.802	-5.41931E-05
12.804	-5.40834E-05
12.806	-5.39118E-05
12.808	-5.3683E-05
12.81	-5.3416E-05
12.812	-5.31395E-05
12.814	-5.2882E-05
12.816	-5.26961E-05
12.818	-5.26103E-05
12.82	-5.26532E-05
12.822	-5.28439E-05
12.824	-5.31728E-05
12.826	-5.36448E-05
12.828	-5.42408E-05
12.83	-5.49416E-05
12.832	-5.57282E-05
12.834	-5.65673E-05
12.836	-5.74303E-05
12.838	-5.82789E-05
12.84	-5.90799E-05
12.842	-5.97998E-05
12.844	-6.04338E-05
12.846	-6.09726E-05
12.848	-6.14398E-05
12.85	-6.18498E-05
12.852	-6.22217E-05
12.854	-6.25697E-05
12.856	-6.28987E-05
12.858	-6.32086E-05
12.86	-6.34899E-05
12.862	-6.37235E-05
12.864	-6.38903E-05
12.866	-6.39523E-05
12.868	-6.3876E-05
12.87	-6.36091E-05
12.872	-6.30846E-05
12.874	-6.22598E-05
12.876	-6.10918E-05
12.878	-5.95471E-05
12.88	-5.76353E-05
12.882	-5.53707E-05
12.884	-5.2801E-05
12.886	-4.99785E-05
12.888	-4.69721E-05
12.89	-4.3857E-05
12.892	-4.07156E-05
