0	0
0.0005	0.000227196
0.001	0.0002274
0.0015	0.000193678
0.002	0.000164567
0.0025	0.00015191
0.003	0.000132295
0.0035	9.65E-05
0.004	6.22E-05
0.0045	3.20E-05
0.005	-1.47E-05
0.0055	-7.36E-05
0.006	-0.000103839
0.0065	-8.82E-05
0.007	-6.64E-05
0.0075	-7.84E-05
0.008	-0.00010699
0.0085	-0.000106203
0.009	-6.23E-05
0.0095	1.73E-06
0.01	6.14E-05
0.0105	0.000102551
0.011	0.0001134
0.0115	9.22E-05
0.012	5.35E-05
0.0125	1.05E-05
0.013	-3.85E-05
0.0135	-9.30E-05
0.014	-0.000135169
0.0145	-0.000153073
0.015	-0.0001657
0.0155	-0.000204774
0.016	-0.000277342
0.0165	-0.000363539
0.017	-0.000440185
0.0175	-0.000484872
0.018	-0.000472038
0.0185	-0.000400069
0.019	-0.000312382
0.0195	-0.000246258
0.02	-0.000164209
0.0205	4.17E-06
0.021	0.000237792
0.0215	0.000406784
0.022	0.000416874
0.0225	0.000316354
0.023	0.000213816
0.0235	0.000142754
0.024	7.20E-05
0.0245	1.00E-05
0.025	1.34E-05
0.0255	9.13E-05
0.026	0.000169934
0.0265	0.000172276
0.027	9.69E-05
0.0275	1.71E-06
0.028	-5.81E-05
0.0285	-6.31E-05
0.029	-2.58E-05
0.0295	2.36E-05
0.03	5.53E-05
0.0305	6.02E-05
0.031	5.38E-05
0.0315	5.55E-05
0.032	6.77E-05
0.0325	8.09E-05
0.033	9.75E-05
0.0335	0.000139269
0.034	0.000220748
0.0345	0.000319432
0.035	0.000382922
0.0355	0.000371086
0.036	0.000289311
0.0365	0.000182948
0.037	0.000105448
0.0375	8.74E-05
0.038	0.000120437
0.0385	0.000164556
0.039	0.000179187
0.0395	0.0001578
0.04	0.000129
0.0405	0.000121932
0.041	0.000137553
0.0415	0.000156012
0.042	0.000160534
0.0425	0.000145981
0.043	0.00011389
0.0435	7.09E-05
0.044	2.76E-05
0.0445	-1.08E-05
0.045	-4.81E-05
0.0455	-8.34E-05
0.046	-9.94E-05
0.0465	-7.86E-05
0.047	-3.06E-05
0.0475	1.02E-05
0.048	1.90E-05
0.0485	4.22E-06
0.049	-8.78E-06
0.0495	-9.43E-06
0.05	-6.83E-06
0.0505	-1.08E-05
0.051	-2.15E-05
0.0515	-3.58E-05
0.052	-5.09E-05
0.0525	-5.59E-05
0.053	-3.34E-05
0.0535	1.91E-05
0.054	7.56E-05
0.0545	9.74E-05
0.055	6.50E-05
0.0555	-8.31E-06
0.056	-8.69E-05
0.0565	-0.000134845
0.057	-0.00013907
0.0575	-0.000118688
0.058	-0.000106051
0.0585	-0.000111288
0.059	-0.000112485
0.0595	-8.57E-05
0.06	-3.38E-05
0.0605	2.00E-05
0.061	5.45E-05
0.0615	5.70E-05
0.062	2.58E-05
0.0625	-1.98E-05
0.063	-4.72E-05
0.0635	-4.68E-05
0.064	-4.74E-05
0.0645	-7.45E-05
0.065	-0.00010535
0.0655	-9.20E-05
0.066	-2.49E-05
0.0665	5.09E-05
0.067	8.78E-05
0.0675	7.88E-05
0.068	4.67E-05
0.0685	1.22E-05
0.069	-1.22E-05
0.0695	-1.79E-05
0.07	-7.68E-06
0.0705	-1.71E-07
0.071	-1.16E-05
0.0715	-3.73E-05
0.072	-6.21E-05
0.0725	-8.62E-05
0.073	-0.000127447
0.0735	-0.000196649
0.074	-0.000281051
0.0745	-0.000357742
0.075	-0.00041617
0.0755	-0.000457303
0.076	-0.000474816
0.0765	-0.000454293
0.077	-0.000399515
0.0775	-0.000345882
0.078	-0.000330931
0.0785	-0.000357056
0.079	-0.000399197
0.0795	-0.00044068
0.08	-0.000473684
0.0805	-0.000465271
0.081	-0.000363814
0.0815	-0.000165148
0.082	5.25E-05
0.0825	0.000192523
0.083	0.000229478
0.0835	0.000211275
0.084	0.000184688
0.0845	0.000154899
0.085	0.000117176
0.0855	8.54E-05
0.086	6.65E-05
0.0865	3.53E-05
0.087	-3.28E-05
0.0875	-0.000119303
0.088	-0.000184735
0.0885	-0.00022116
0.089	-0.000245379
0.0895	-0.00024875
0.09	-0.000202615
0.0905	-0.000118657
0.091	-5.06E-05
0.0915	-1.55E-05
0.092	3.60E-05
0.0925	0.00014144
0.093	0.000261404
0.0935	0.000332091
0.094	0.000344875
0.0945	0.000329768
0.095	0.000289663
0.0955	0.000205371
0.096	9.50E-05
0.0965	1.72E-05
0.097	8.38E-06
0.0975	5.30E-05
0.098	0.000119409
0.0985	0.000191782
0.099	0.000256523
0.0995	0.000294081
0.1	0.000303268
0.1005	0.00030778
0.101	0.000318784
0.1015	0.000315126
0.102	0.000281459
0.1025	0.000239483
0.103	0.000211949
0.1035	0.000178543
0.104	0.000106639
0.1045	1.54E-05
0.105	-3.17E-05
0.1055	-3.58E-06
0.106	5.88E-05
0.1065	8.85E-05
0.107	5.69E-05
0.1075	-1.43E-05
0.108	-8.34E-05
0.1085	-0.000117841
0.109	-0.000107398
0.1095	-6.97E-05
0.11	-4.10E-05
0.1105	-4.51E-05
0.111	-6.51E-05
0.1115	-5.73E-05
0.112	-1.85E-06
0.1125	7.12E-05
0.113	0.000117652
0.1135	0.000128663
0.114	0.000122202
0.1145	9.38E-05
0.115	1.54E-05
0.1155	-0.00010273
0.116	-0.000187325
0.1165	-0.000170115
0.117	-6.52E-05
0.1175	5.12E-05
0.118	0.000124868
0.1185	0.000157211
0.119	0.000165651
0.1195	0.000149779
0.12	0.000103664
0.1205	3.81E-05
0.121	-1.74E-05
0.1215	-2.66E-05
0.122	2.95E-05
0.1225	0.000122319
0.123	0.000180655
0.1235	0.000154601
0.124	7.16E-05
0.1245	7.12E-06
0.125	3.63E-06
0.1255	4.13E-05
0.126	8.16E-05
0.1265	0.000107167
0.127	0.000114257
0.1275	0.000101719
0.128	8.58E-05
0.1285	9.84E-05
0.129	0.000145809
0.1295	0.000189443
0.13	0.000192296
0.1305	0.000165717
0.131	0.000141766
0.1315	0.000119494
0.132	7.87E-05
0.1325	3.49E-05
0.133	3.37E-05
0.1335	8.87E-05
0.134	0.000163125
0.1345	0.000217564
0.135	0.000243344
0.1355	0.000249082
0.136	0.000244605
0.1365	0.000236301
0.137	0.000212214
0.1375	0.000143663
0.138	3.24E-05
0.1385	-6.12E-05
0.139	-7.34E-05
0.1395	-5.31E-06
0.14	9.60E-05
0.1405	0.000190902
0.141	0.00023896
0.1415	0.000182525
0.142	1.08E-05
0.1425	-0.000183957
0.143	-0.000289151
0.1435	-0.000297741
0.144	-0.000286201
0.1445	-0.000287871
0.145	-0.000270997
0.1455	-0.00023804
0.146	-0.000258056
0.1465	-0.000371688
0.147	-0.000521538
0.1475	-0.000609394
0.148	-0.000596906
0.1485	-0.000537994
0.149	-0.000529053
0.1495	-0.000623486
0.15	-0.000778443
0.1505	-0.000895278
0.151	-0.000920846
0.1515	-0.000884224
0.152	-0.000827653
0.1525	-0.000747962
0.153	-0.000629701
0.1535	-0.000486256
0.154	-0.000330965
0.1545	-0.000152449
0.155	3.71E-05
0.1555	0.000170046
0.156	0.000195897
0.1565	0.000164104
0.157	0.000182141
0.1575	0.000295904
0.158	0.000448438
0.1585	0.000552676
0.159	0.000571732
0.1595	0.000527544
0.16	0.000466412
0.1605	0.000436683
0.161	0.000479352
0.1615	0.000603856
0.162	0.000761677
0.1625	0.000865632
0.163	0.00085567
0.1635	0.000741081
0.164	0.000575765
0.1645	0.000414882
0.165	0.000304471
0.1655	0.00027597
0.166	0.000317601
0.1665	0.000373679
0.167	0.000404145
0.1675	0.00042625
0.168	0.000469095
0.1685	0.000511395
0.169	0.000503163
0.1695	0.000433691
0.17	0.000337951
0.1705	0.000243558
0.171	0.000152812
0.1715	7.95E-05
0.172	6.01E-05
0.1725	0.000104526
0.173	0.000158781
0.1735	0.000149825
0.174	6.25E-05
0.1745	-5.88E-05
0.175	-0.000197043
0.1755	-0.000415801
0.176	-0.000778212
0.1765	-0.001215412
0.177	-0.001535445
0.1775	-0.001603818
0.178	-0.001475002
0.1785	-0.001287755
0.179	-0.001065705
0.1795	-0.000719526
0.18	-0.000253961
0.1805	0.000142664
0.181	0.000286412
0.1815	0.000199631
0.182	4.13E-05
0.1825	-0.00010726
0.183	-0.000284327
0.1835	-0.000507313
0.184	-0.000706905
0.1845	-0.000820505
0.185	-0.000860068
0.1855	-0.000850967
0.186	-0.000773354
0.1865	-0.000610812
0.187	-0.000409037
0.1875	-0.000236605
0.188	-0.000111932
0.1885	-4.70E-06
0.189	0.000110682
0.1895	0.000234324
0.19	0.000357869
0.1905	0.000472969
0.191	0.0005655
0.1915	0.000613728
0.192	0.000591166
0.1925	0.000483221
0.193	0.000325607
0.1935	0.000212956
0.194	0.000222561
0.1945	0.000323776
0.195	0.000406077
0.1955	0.000405852
0.196	0.000361301
0.1965	0.00033062
0.197	0.000307523
0.1975	0.00024746
0.198	0.000139696
0.1985	1.82E-05
0.199	-7.72E-05
0.1995	-0.000122302
0.2	-0.000105229
0.2005	-3.34E-05
0.201	6.11E-05
0.2015	0.000145391
0.202	0.000216664
0.2025	0.000288317
0.203	0.000345308
0.2035	0.000343467
0.204	0.00027359
0.2045	0.000200575
0.205	0.000203344
0.2055	0.0002852
0.206	0.000376455
0.2065	0.000419188
0.207	0.000414914
0.2075	0.00039305
0.208	0.000370415
0.2085	0.000344109
0.209	0.00029289
0.2095	0.000188797
0.21	3.99E-05
0.2105	-8.77E-05
0.211	-0.000129772
0.2115	-9.51E-05
0.212	-3.84E-05
0.2125	2.08E-05
0.213	9.40E-05
0.2135	0.000152901
0.214	0.00013439
0.2145	2.88E-05
0.215	-9.94E-05
0.2155	-0.000196768
0.216	-0.000269016
0.2165	-0.00032399
0.217	-0.000326893
0.2175	-0.000255042
0.218	-0.000152652
0.2185	-8.18E-05
0.219	-4.62E-05
0.2195	-7.53E-06
0.22	4.49E-05
0.2205	8.78E-05
0.221	0.000112375
0.2215	0.000132842
0.222	0.000153608
0.2225	0.000166989
0.223	0.000174915
0.2235	0.000176971
0.224	0.000152761
0.2245	9.79E-05
0.225	5.74E-05
0.2255	6.82E-05
0.226	8.66E-05
0.2265	3.49E-05
0.227	-8.37E-05
0.2275	-0.00018173
0.228	-0.000199273
0.2285	-0.000150502
0.229	-5.67E-05
0.2295	8.50E-05
0.23	0.000235185
0.2305	0.000282413
0.231	0.000135972
0.2315	-0.000175477
0.232	-0.000521555
0.2325	-0.000766716
0.233	-0.00084662
0.2335	-0.000787243
0.234	-0.000665996
0.2345	-0.000534882
0.235	-0.000383126
0.2355	-0.000195842
0.236	-2.58E-05
0.2365	4.43E-05
0.237	5.87E-06
0.2375	-6.30E-05
0.238	-9.15E-05
0.2385	-7.00E-05
0.239	-4.35E-06
0.2395	0.000115993
0.24	0.00027923
0.2405	0.000442906
0.241	0.000601194
0.2415	0.00080045
0.242	0.001041247
0.2425	0.001226071
0.243	0.001260585
0.2435	0.001142912
0.244	0.000891456
0.2445	0.000474907
0.245	-7.65E-05
0.2455	-0.000563003
0.246	-0.000762604
0.2465	-0.000663159
0.247	-0.000432442
0.2475	-0.000186511
0.248	9.01E-05
0.2485	0.000418581
0.249	0.00075273
0.2495	0.001027222
0.25	0.001166736
0.2505	0.001058693
0.251	0.000641213
0.2515	2.60E-05
0.252	-0.000573322
0.2525	-0.001043856
0.253	-0.001412575
0.2535	-0.00169503
0.254	-0.001818045
0.2545	-0.001713637
0.255	-0.001411312
0.2555	-0.001028379
0.256	-0.00072175
0.2565	-0.000619516
0.257	-0.000727594
0.2575	-0.000921838
0.258	-0.001067767
0.2585	-0.001086835
0.259	-0.000884878
0.2595	-0.000363615
0.26	0.000393666
0.2605	0.001076934
0.261	0.001410865
0.2615	0.001350795
0.262	0.000943442
0.2625	0.00020928
0.263	-0.00065919
0.2635	-0.001204445
0.264	-0.001102918
0.2645	-0.000557586
0.265	-4.96E-05
0.2655	0.000197704
0.266	0.000263965
0.2665	0.000182417
0.267	-9.24E-05
0.2675	-0.000391301
0.268	-0.000380503
0.2685	-1.59E-05
0.269	0.000340386
0.2695	0.000408147
0.27	0.000352903
0.2705	0.000465819
0.271	0.000679643
0.2715	0.00066812
0.272	0.000335481
0.2725	-5.52E-05
0.273	-0.000233379
0.2735	-0.000184188
0.274	-4.33E-05
0.2745	8.08E-05
0.275	0.000139484
0.2755	0.000154508
0.276	0.00023588
0.2765	0.00047149
0.277	0.000799896
0.2775	0.001115502
0.278	0.001454197
0.2785	0.001887519
0.279	0.002252568
0.2795	0.002224051
0.28	0.00172751
0.2805	0.001095709
0.281	0.000711674
0.2815	0.00063007
0.282	0.00065349
0.2825	0.000665604
0.283	0.000739441
0.2835	0.000943988
0.284	0.001176985
0.2845	0.001256818
0.285	0.001144517
0.2855	0.000998987
0.286	0.000971033
0.2865	0.000988492
0.287	0.000830617
0.2875	0.00040512
0.288	-0.000161402
0.2885	-0.000736004
0.289	-0.001343883
0.2895	-0.002024581
0.29	-0.002640362
0.2905	-0.002988232
0.291	-0.00306493
0.2915	-0.00306346
0.292	-0.003088468
0.2925	-0.003015018
0.293	-0.002702246
0.2935	-0.002251087
0.294	-0.00193687
0.2945	-0.001899303
0.295	-0.001979761
0.2955	-0.001888522
0.296	-0.001496023
0.2965	-0.00093928
0.297	-0.000458222
0.2975	-0.000149708
0.298	9.75E-05
0.2985	0.000417178
0.299	0.000754795
0.2995	0.000905129
0.3	0.000759715
0.3005	0.000439672
0.301	0.000148368
0.3015	-3.40E-05
0.302	-0.000140968
0.3025	-0.000163699
0.303	-1.43E-05
0.3035	0.000340514
0.304	0.00079037
0.3045	0.001168391
0.305	0.001389401
0.3055	0.001476034
0.306	0.001487256
0.3065	0.001460805
0.307	0.001412517
0.3075	0.001361167
0.308	0.001336422
0.3085	0.001340061
0.309	0.001289193
0.3095	0.00104482
0.31	0.000557778
0.3105	-2.62E-05
0.311	-0.000462534
0.3115	-0.00061137
0.312	-0.000520359
0.3125	-0.000344651
0.313	-0.000241801
0.3135	-0.000308859
0.314	-0.000533724
0.3145	-0.000793174
0.315	-0.000943391
0.3155	-0.000919972
0.316	-0.00073961
0.3165	-0.000447166
0.317	-0.000106486
0.3175	0.000189716
0.318	0.000359036
0.3185	0.000378189
0.319	0.000276136
0.3195	0.000108369
0.32	-4.04E-05
0.3205	-7.89E-05
0.321	4.73E-06
0.3215	0.000102418
0.322	9.48E-05
0.3225	4.70E-06
0.323	-1.82E-05
0.3235	0.00011592
0.324	0.000324157
0.3245	0.000468843
0.325	0.000532392
0.3255	0.000603341
0.326	0.000722647
0.3265	0.00083481
0.327	0.000884847
0.3275	0.00087166
0.328	0.000794006
0.3285	0.000635893
0.329	0.000437025
0.3295	0.0002949
0.33	0.000247828
0.3305	0.000214656
0.331	9.67E-05
0.3315	-0.000104801
0.332	-0.000308204
0.3325	-0.000443567
0.333	-0.000485032
0.3335	-0.000433588
0.334	-0.000320542
0.3345	-0.000210491
0.335	-0.000154361
0.3355	-0.000139265
0.336	-0.000113074
0.3365	-5.68E-05
0.337	-7.71E-06
0.3375	-9.63E-06
0.338	-5.85E-05
0.3385	-0.000103101
0.339	-8.72E-05
0.3395	7.19E-06
0.34	0.000147522
0.3405	0.000271676
0.341	0.000319241
0.3415	0.000244588
0.342	3.15E-05
0.3425	-0.000256371
0.343	-0.000448061
0.3435	-0.000374619
0.344	-7.06E-05
0.3445	0.000184724
0.345	0.00011309
0.3455	-0.000280401
0.346	-0.000730908
0.3465	-0.000997682
0.347	-0.001047338
0.3475	-0.000971564
0.348	-0.000834808
0.3485	-0.000644506
0.349	-0.000395006
0.3495	-8.80E-05
0.35	0.000250789
0.3505	0.000548895
0.351	0.000721788
0.3515	0.000750905
0.352	0.000692477
0.3525	0.000606245
0.353	0.000516792
0.3535	0.000433734
0.354	0.000349623
0.3545	0.000228412
0.355	6.66E-05
0.3555	-5.18E-05
0.356	-5.54E-05
0.3565	-2.65E-05
0.357	-0.000109868
0.3575	-0.000264918
0.358	-0.000265771
0.3585	-2.07E-05
0.359	0.000258501
0.3595	0.000323045
0.36	0.000201378
0.3605	0.000100168
0.361	9.32E-05
0.3615	9.31E-05
0.362	8.07E-05
0.3625	0.000152506
0.363	0.000320866
0.3635	0.000445246
0.364	0.000427186
0.3645	0.00033561
0.365	0.000262956
0.3655	0.000170197
0.366	-2.68E-05
0.3665	-0.000287255
0.367	-0.000467214
0.3675	-0.000499349
0.368	-0.000474933
0.3685	-0.000524987
0.369	-0.000656135
0.3695	-0.000741504
0.37	-0.000676756
0.3705	-0.000509591
0.371	-0.000379324
0.3715	-0.000345635
0.372	-0.000326001
0.3725	-0.000204617
0.373	3.84E-05
0.3735	0.000307232
0.374	0.000461639
0.3745	0.000416407
0.375	0.000220121
0.3755	2.23E-05
0.376	-9.29E-05
0.3765	-0.000213062
0.377	-0.000444759
0.3775	-0.00067238
0.378	-0.000610831
0.3785	-0.000159023
0.379	0.000419435
0.3795	0.000771467
0.38	0.000828131
0.3805	0.000782559
0.381	0.000755949
0.3815	0.000653622
0.382	0.000375752
0.3825	2.00E-05
0.383	-0.000220171
0.3835	-0.000281103
0.384	-0.000258528
0.3845	-0.000249721
0.385	-0.000254245
0.3855	-0.00023031
0.386	-0.000179224
0.3865	-0.000142002
0.387	-0.00013857
0.3875	-0.000139584
0.388	-0.000104089
0.3885	-3.30E-05
0.389	3.49E-05
0.3895	8.29E-05
0.39	0.000137987
0.3905	0.000216133
0.391	0.000283698
0.3915	0.000307844
0.392	0.00030444
0.3925	0.000286696
0.393	0.000207438
0.3935	1.56E-05
0.394	-0.000262739
0.3945	-0.000556009
0.395	-0.000806875
0.3955	-0.000934837
0.396	-0.000829957
0.3965	-0.000511205
0.397	-0.00021952
0.3975	-0.000191778
0.398	-0.000382972
0.3985	-0.000571318
0.399	-0.000682307
0.3995	-0.000807441
0.4	-0.000942675
0.4005	-0.000950196
0.401	-0.000785895
0.4015	-0.000529394
0.402	-0.000177309
0.4025	0.000329315
0.403	0.000829634
0.4035	0.000990672
0.404	0.000755779
0.4045	0.000494222
0.405	0.000535652
0.4055	0.00074817
0.406	0.000750953
0.4065	0.000390043
0.407	-0.000169718
0.4075	-0.000691484
0.408	-0.001010387
0.4085	-0.001020554
0.409	-0.000730976
0.4095	-0.000334471
0.41	-7.13E-05
0.4105	-1.66E-06
0.411	-4.14E-06
0.4115	1.40E-05
0.412	2.40E-05
0.4125	2.29E-06
0.413	1.83E-05
0.4135	0.00012808
0.414	0.000267645
0.4145	0.000341294
0.415	0.000364603
0.4155	0.000424101
0.416	0.000517937
0.4165	0.000538791
0.417	0.000429301
0.4175	0.000267303
0.418	0.000158313
0.4185	0.000105057
0.419	2.87E-05
0.4195	-0.000116098
0.42	-0.000282748
0.4205	-0.000369362
0.421	-0.00030053
0.4215	-9.51E-05
0.422	0.000136881
0.4225	0.00028327
0.423	0.00032231
0.4235	0.000321361
0.424	0.000351789
0.4245	0.000411353
0.425	0.000420266
0.4255	0.000299378
0.426	7.35E-05
0.4265	-0.000114731
0.427	-0.000125455
0.4275	5.71E-05
0.428	0.000339392
0.4285	0.000602467
0.429	0.000730473
0.4295	0.000645787
0.43	0.000424783
0.4305	0.000311861
0.431	0.000469309
0.4315	0.000735069
0.432	0.000780727
0.4325	0.000518695
0.433	0.000207313
0.4335	0.000122438
0.434	0.000266196
0.4345	0.00045521
0.435	0.000558853
0.4355	0.000551122
0.436	0.000430071
0.4365	0.000221537
0.437	3.04E-05
0.4375	-2.92E-05
0.438	3.27E-05
0.4385	9.49E-05
0.439	8.46E-05
0.4395	5.48E-05
0.44	8.24E-05
0.4405	0.000158186
0.441	0.000225986
0.4415	0.000277621
0.442	0.000339795
0.4425	0.000386055
0.443	0.000333775
0.4435	0.000148125
0.444	-9.44E-05
0.4445	-0.000274663
0.445	-0.000342954
0.4455	-0.000343233
0.446	-0.000341511
0.4465	-0.000360424
0.447	-0.000385915
0.4475	-0.000407649
0.448	-0.000425231
0.4485	-0.000423509
0.449	-0.000375713
0.4495	-0.000284365
0.45	-0.000193745
0.4505	-0.000136227
0.451	-8.01E-05
0.4515	3.38E-05
0.452	0.000196341
0.4525	0.000297401
0.453	0.000218298
0.4535	-4.54E-05
0.454	-0.000367842
0.4545	-0.000604078
0.455	-0.000708341
0.4555	-0.000736131
0.456	-0.000739028
0.4565	-0.000679683
0.457	-0.000474126
0.4575	-0.000123199
0.458	0.000227448
0.4585	0.000401004
0.459	0.000364923
0.4595	0.000247951
0.46	0.00016924
0.4605	0.000113901
0.461	2.31E-05
0.4615	-6.45E-05
0.462	-5.81E-05
0.4625	3.38E-05
0.463	0.000112915
0.4635	0.000153496
0.464	0.000237965
0.4645	0.000403361
0.465	0.000559547
0.4655	0.00060951
0.466	0.000552798
0.4665	0.000406754
0.467	0.000124621
0.4675	-0.000310078
0.468	-0.000778933
0.4685	-0.001129018
0.469	-0.001333339
0.4695	-0.001445684
0.47	-0.001441675
0.4705	-0.001238934
0.471	-0.000861609
0.4715	-0.000445593
0.472	-6.38E-05
0.4725	0.000321819
0.473	0.000695489
0.4735	0.000897507
0.474	0.000775731
0.4745	0.000358442
0.475	-0.000181245
0.4755	-0.000682763
0.476	-0.001066733
0.4765	-0.00127817
0.477	-0.00123615
0.4775	-0.000904692
0.478	-0.000427999
0.4785	-0.000110985
0.479	-0.000147185
0.4795	-0.000381693
0.48	-0.000479065
0.4805	-0.000342126
0.481	-0.00020875
0.4815	-0.000284306
0.482	-0.000460902
0.4825	-0.000519565
0.483	-0.00044615
0.4835	-0.00036771
0.484	-0.00028791
0.4845	-9.44E-05
0.485	0.000218268
0.4855	0.000528774
0.486	0.000774558
0.4865	0.000970666
0.487	0.001040483
0.4875	0.000833792
0.488	0.000380664
0.4885	-4.40E-05
0.489	-0.000209414
0.4895	-0.000157588
0.49	-5.17E-05
0.4905	7.14E-05
0.491	0.000262938
0.4915	0.000471903
0.492	0.000559444
0.4925	0.000486181
0.493	0.000355753
0.4935	0.000259934
0.494	0.000179108
0.4945	6.53E-05
0.495	-4.42E-05
0.4955	-4.28E-05
0.496	0.000126137
0.4965	0.000378295
0.497	0.000530163
0.4975	0.000467154
0.498	0.000270764
0.4985	0.000129812
0.499	0.000116133
0.4995	0.000119275
0.5	3.81E-05
0.5005	-5.06E-05
0.501	-6.54E-06
0.5015	0.000141877
0.502	0.000204904
0.5025	8.43E-05
0.503	-9.04E-05
0.5035	-0.000133742
0.504	-3.27E-05
0.5045	7.19E-05
0.505	7.19E-05
0.5055	-3.67E-05
0.506	-0.000235275
0.5065	-0.000509432
0.507	-0.000766962
0.5075	-0.000837236
0.508	-0.000631633
0.5085	-0.000255552
0.509	0.000100218
0.5095	0.000339088
0.51	0.00047299
0.5105	0.000515281
0.511	0.000470394
0.5115	0.000423737
0.512	0.000511003
0.5125	0.00072272
0.513	0.00081875
0.5135	0.000550035
0.514	-3.35E-05
0.5145	-0.000567936
0.515	-0.000688631
0.5155	-0.000330295
0.516	0.0002712
0.5165	0.000809289
0.517	0.001107008
0.5175	0.001136076
0.518	0.000928388
0.5185	0.000542888
0.519	0.000119488
0.5195	-0.000129898
0.52	-8.74E-05
0.5205	0.000124017
0.521	0.000248248
0.5215	0.000163545
0.522	-2.97E-05
0.5225	-0.000183092
0.523	-0.00025523
0.5235	-0.000267738
0.524	-0.000223322
0.5245	-0.000139054
0.525	-7.82E-05
0.5255	-6.71E-05
0.526	-2.75E-05
0.5265	0.000140052
0.527	0.000431156
0.5275	0.000730857
0.528	0.000892682
0.5285	0.00080636
0.529	0.00046411
0.5295	2.15E-05
0.53	-0.000265575
0.5305	-0.000249253
0.531	-2.32E-05
0.5315	0.000196247
0.532	0.000293601
0.5325	0.000309073
0.533	0.0003157
0.5335	0.000326997
0.534	0.000324924
0.5345	0.000306703
0.535	0.000280559
0.5355	0.000251505
0.536	0.000220381
0.5365	0.000173152
0.537	8.14E-05
0.5375	-5.52E-05
0.538	-0.000182127
0.5385	-0.000247233
0.539	-0.000270809
0.5395	-0.000312277
0.54	-0.000370317
0.5405	-0.000369206
0.541	-0.000257955
0.5415	-7.83E-05
0.542	9.00E-05
0.5425	0.000214498
0.543	0.000301644
0.5435	0.000325698
0.544	0.000220942
0.5445	-3.46E-05
0.545	-0.000358296
0.5455	-0.000616443
0.546	-0.000733399
0.5465	-0.000727282
0.547	-0.000652287
0.5475	-0.000543088
0.548	-0.000420299
0.5485	-0.000310833
0.549	-0.000239218
0.5495	-0.000221037
0.55	-0.00027802
0.5505	-0.000426054
0.551	-0.000626856
0.5515	-0.000791699
0.552	-0.00087063
0.5525	-0.000903741
0.553	-0.000941374
0.5535	-0.000954507
0.554	-0.000890233
0.5545	-0.000782584
0.555	-0.000710325
0.5555	-0.000641027
0.556	-0.000428855
0.5565	-3.01E-05
0.557	0.000359112
0.5575	0.000478648
0.558	0.000295849
0.5585	3.52E-05
0.559	-7.95E-05
0.5595	-2.45E-05
0.56	9.99E-05
0.5605	0.000242616
0.561	0.000413718
0.5615	0.000574273
0.562	0.000624786
0.5625	0.000522731
0.563	0.000343784
0.5635	0.000190338
0.564	7.42E-05
0.5645	-8.37E-05
0.565	-0.000362138
0.5655	-0.000769997
0.566	-0.00123962
0.5665	-0.001666493
0.567	-0.001972402
0.5675	-0.002145187
0.568	-0.002190596
0.5685	-0.002038376
0.569	-0.001565109
0.5695	-0.000772193
0.57	0.00011355
0.5705	0.000813424
0.571	0.001246681
0.5715	0.001507533
0.572	0.001625534
0.5725	0.001506557
0.573	0.001140688
0.5735	0.000704267
0.574	0.000366089
0.5745	0.000121412
0.575	-7.49E-05
0.5755	-0.000130472
0.576	7.28E-05
0.5765	0.000444681
0.577	0.000718069
0.5775	0.00072567
0.578	0.000547364
0.5785	0.000376518
0.579	0.000324584
0.5795	0.000376338
0.58	0.000466089
0.5805	0.000550631
0.581	0.000626115
0.5815	0.000701984
0.582	0.000770719
0.5825	0.00081232
0.583	0.000824595
0.5835	0.00082854
0.584	0.000838298
0.5845	0.000841195
0.585	0.000808978
0.5855	0.000715518
0.586	0.000550194
0.5865	0.000333064
0.587	0.000113517
0.5875	-5.58E-05
0.588	-0.000131152
0.5885	-6.89E-05
0.589	0.000142124
0.5895	0.000411281
0.59	0.000575825
0.5905	0.000564897
0.591	0.000483486
0.5915	0.000449122
0.592	0.000391937
0.5925	0.000137277
0.593	-0.000324233
0.5935	-0.000781372
0.594	-0.001044371
0.5945	-0.001122722
0.595	-0.001116437
0.5955	-0.001050694
0.596	-0.000901508
0.5965	-0.00069483
0.597	-0.000481408
0.5975	-0.000269784
0.598	-7.30E-05
0.5985	2.83E-05
0.599	-3.03E-05
0.5995	-0.000176702
0.6	-0.000254835
0.6005	-0.000176418
0.601	6.23E-05
0.6015	0.000462897
0.602	0.000974119
0.6025	0.001363895
0.603	0.001336285
0.6035	0.000869046
0.604	0.000292233
0.6045	-8.64E-05
0.605	-0.000309837
0.6055	-0.000583735
0.606	-0.000883105
0.6065	-0.000965893
0.607	-0.000744663
0.6075	-0.000429486
0.608	-0.000263919
0.6085	-0.000279021
0.609	-0.000351532
0.6095	-0.00037301
0.61	-0.000319971
0.6105	-0.000260424
0.611	-0.000305669
0.6115	-0.00046007
0.612	-0.000547599
0.6125	-0.000421236
0.613	-0.000205859
0.6135	-0.000150539
0.614	-0.000251397
0.6145	-0.000232792
0.615	6.33E-05
0.6155	0.000480725
0.616	0.000806945
0.6165	0.001014856
0.617	0.001125429
0.6175	0.001016817
0.618	0.000561922
0.6185	-0.000116995
0.619	-0.000681346
0.6195	-0.00085387
0.62	-0.000607162
0.6205	-0.00013585
0.621	0.000291379
0.6215	0.000506242
0.622	0.00053841
0.6225	0.000523395
0.623	0.000508623
0.6235	0.000414002
0.624	0.000187837
0.6245	-9.34E-05
0.625	-0.000307845
0.6255	-0.000384537
0.626	-0.000299276
0.6265	-8.39E-05
0.627	0.000127718
0.6275	0.000176046
0.628	5.36E-05
0.6285	-8.36E-05
0.629	-0.000116868
0.6295	-7.48E-05
0.63	-1.40E-05
0.6305	6.69E-05
0.631	0.000123882
0.6315	2.90E-05
0.632	-0.000239854
0.6325	-0.000476137
0.633	-0.000457892
0.6335	-0.000224194
0.634	-5.12E-06
0.6345	7.92E-05
0.635	0.000104047
0.6355	0.000143674
0.636	0.000157599
0.6365	0.000121935
0.637	0.000129769
0.6375	0.000251921
0.638	0.000379654
0.6385	0.000328448
0.639	6.96E-05
0.6395	-0.000250192
0.64	-0.000506791
0.6405	-0.00069264
0.641	-0.000786989
0.6415	-0.000676114
0.642	-0.00031422
0.6425	0.000119727
0.643	0.000371033
0.6435	0.000402324
0.644	0.000409949
0.6445	0.000527068
0.645	0.000631297
0.6455	0.000516515
0.646	0.000176327
0.6465	-0.000173109
0.647	-0.000327008
0.6475	-0.00027978
0.648	-0.00018233
0.6485	-0.000163536
0.649	-0.000207547
0.6495	-0.000181072
0.65	2.84E-05
0.6505	0.000387843
0.651	0.000728029
0.6515	0.000883824
0.652	0.000811711
0.6525	0.000564627
0.653	0.000202729
0.6535	-0.000212682
0.654	-0.000574642
0.6545	-0.000779728
0.655	-0.000836608
0.6555	-0.000845132
0.656	-0.000846773
0.6565	-0.000779177
0.657	-0.000610326
0.6575	-0.000424879
0.658	-0.000317512
0.6585	-0.000278697
0.659	-0.000256095
0.6595	-0.000255991
0.66	-0.000297309
0.6605	-0.000327415
0.661	-0.000284984
0.6615	-0.000199029
0.662	-0.000117093
0.6625	1.96E-05
0.663	0.000292374
0.6635	0.000613554
0.664	0.000765123
0.6645	0.000650673
0.665	0.000385685
0.6655	0.000122243
0.666	-8.33E-05
0.6665	-0.000201864
0.667	-0.000177065
0.6675	-1.15E-05
0.668	0.000190258
0.6685	0.000321007
0.669	0.000342114
0.6695	0.000237648
0.67	2.41E-06
0.6705	-0.000282236
0.671	-0.000456032
0.6715	-0.000428856
0.672	-0.000272018
0.6725	-0.000124399
0.673	-5.93E-05
0.6735	-7.67E-05
0.674	-0.000166003
0.6745	-0.00031477
0.675	-0.000481157
0.6755	-0.000625515
0.676	-0.000764516
0.6765	-0.000920925
0.677	-0.000999725
0.6775	-0.000811313
0.678	-0.000306848
0.6785	0.00027129
0.679	0.000590035
0.6795	0.000547353
0.68	0.000288355
0.6805	-2.96E-05
0.681	-0.000296402
0.6815	-0.000312135
0.682	0.000120524
0.6825	0.000853952
0.683	0.001387429
0.6835	0.001386313
0.684	0.001048452
0.6845	0.000785958
0.685	0.000716229
0.6855	0.000685456
0.686	0.000635756
0.6865	0.000646657
0.687	0.000671601
0.6875	0.000540827
0.688	0.00025995
0.6885	4.79E-05
0.689	5.10E-06
0.6895	-3.14E-05
0.69	-0.000197263
0.6905	-0.000356698
0.691	-0.000290755
0.6915	6.46E-06
0.692	0.000363929
0.6925	0.000661825
0.693	0.000871806
0.6935	0.000942643
0.694	0.000813806
0.6945	0.000531649
0.695	0.000220159
0.6955	-6.71E-05
0.696	-0.000355243
0.6965	-0.000607313
0.697	-0.000699971
0.6975	-0.00058544
0.698	-0.000393579
0.6985	-0.000315525
0.699	-0.000421386
0.6995	-0.00061283
0.7	-0.000719222
0.7005	-0.000641763
0.701	-0.000457619
0.7015	-0.000380879
0.702	-0.000550887
0.7025	-0.000851682
0.703	-0.001021922
0.7035	-0.00095789
0.704	-0.000801028
0.7045	-0.000681742
0.705	-0.000508624
0.7055	-0.000124262
0.706	0.000434042
0.7065	0.000986888
0.707	0.001461597
0.7075	0.001894629
0.708	0.002190881
0.7085	0.002099197
0.709	0.0015281
0.7095	0.000741946
0.71	0.000124896
0.7105	-0.000158931
0.711	-0.000177213
0.7115	-1.84E-05
0.712	0.00027016
0.7125	0.000579624
0.713	0.00074555
0.7135	0.00069182
0.714	0.000472693
0.7145	0.000156812
0.715	-0.000229879
0.7155	-0.000621153
0.716	-0.000887071
0.7165	-0.000970865
0.717	-0.000971571
0.7175	-0.000998452
0.718	-0.000993945
0.7185	-0.000809589
0.719	-0.000445181
0.7195	-0.000100731
0.72	4.33E-05
0.7205	1.29E-05
0.721	-4.59E-05
0.7215	-6.95E-05
0.722	-0.000108666
0.7225	-0.000183015
0.723	-0.000203187
0.7235	-7.91E-05
0.724	0.000147221
0.7245	0.000330522
0.725	0.000369734
0.7255	0.000280918
0.726	0.000125279
0.7265	-8.52E-05
0.727	-0.00037402
0.7275	-0.00071028
0.728	-0.000977967
0.7285	-0.001055126
0.729	-0.000912567
0.7295	-0.000630215
0.73	-0.000337199
0.7305	-0.000141301
0.731	-7.89E-05
0.7315	-0.000101761
0.732	-0.000132466
0.7325	-0.000156251
0.733	-0.000226139
0.7335	-0.000354718
0.734	-0.000454313
0.7345	-0.000436638
0.735	-0.000324104
0.7355	-0.000197169
0.736	-7.85E-05
0.7365	4.51E-05
0.737	0.000124416
0.7375	8.83E-05
0.738	-1.08E-05
0.7385	-5.00E-07
0.739	0.000210419
0.7395	0.000496352
0.74	0.000631618
0.7405	0.000518405
0.741	0.000267815
0.7415	7.32E-05
0.742	3.68E-05
0.7425	0.000124635
0.743	0.000253688
0.7435	0.000369983
0.744	0.00043604
0.7445	0.000413461
0.745	0.000313766
0.7455	0.000215575
0.746	0.000167903
0.7465	0.000129998
0.747	7.80E-05
0.7475	9.24E-05
0.748	0.000227737
0.7485	0.000369712
0.749	0.000371327
0.7495	0.000272082
0.75	0.000216258
0.7505	0.000208784
0.751	0.000151617
0.7515	8.45E-05
0.752	0.000153415
0.7525	0.000334473
0.753	0.000435366
0.7535	0.000416836
0.754	0.000463094
0.7545	0.000641588
0.755	0.000730618
0.7555	0.00052719
0.756	0.000127116
0.7565	-0.000271545
0.757	-0.000675475
0.7575	-0.001191093
0.758	-0.001713302
0.7585	-0.0019571
0.759	-0.001799105
0.7595	-0.00140495
0.76	-0.000995333
0.7605	-0.000652657
0.761	-0.000402255
0.7615	-0.000302858
0.762	-0.000338492
0.7625	-0.000349922
0.763	-0.000216154
0.7635	-2.41E-05
0.764	7.48E-05
0.7645	0.000102734
0.765	0.000189775
0.7655	0.000308431
0.766	0.000257331
0.7665	-4.98E-05
0.767	-0.000423881
0.7675	-0.000605625
0.768	-0.000535439
0.7685	-0.000336468
0.769	-0.000107428
0.7695	0.00016338
0.77	0.000509783
0.7705	0.000904257
0.771	0.001256454
0.7715	0.001442788
0.772	0.00137524
0.7725	0.001111125
0.773	0.00085473
0.7735	0.000762873
0.774	0.000778007
0.7745	0.000744129
0.775	0.000651672
0.7755	0.000638333
0.776	0.000740044
0.7765	0.000781244
0.777	0.000591703
0.7775	0.000251781
0.778	2.71E-05
0.7785	8.51E-05
0.779	0.000351412
0.7795	0.000635087
0.78	0.000804088
0.7805	0.000808162
0.781	0.000621975
0.7815	0.000266717
0.782	-0.000135424
0.7825	-0.000421535
0.783	-0.000516974
0.7835	-0.000452382
0.784	-0.000277242
0.7845	-4.97E-05
0.785	9.84E-05
0.7855	1.80E-05
0.786	-0.000287434
0.7865	-0.000640722
0.787	-0.0008798
0.7875	-0.000975441
0.788	-0.000936146
0.7885	-0.000739065
0.789	-0.000440549
0.7895	-0.000228991
0.79	-0.000242498
0.7905	-0.000410563
0.791	-0.00058279
0.7915	-0.000734397
0.792	-0.000920755
0.7925	-0.001091554
0.793	-0.001093463
0.7935	-0.000849633
0.794	-0.000443165
0.7945	-4.31E-05
0.795	0.000176513
0.7955	9.48E-05
0.796	-0.000259838
0.7965	-0.000673943
0.797	-0.000888415
0.7975	-0.000784732
0.798	-0.000412973
0.7985	9.53E-05
0.799	0.000569593
0.7995	0.000823234
0.8	0.000757774
0.8005	0.000461287
0.801	0.000140712
0.8015	-5.48E-05
0.802	-0.000111505
0.8025	-6.84E-05
0.803	8.14E-05
0.8035	0.000370351
0.804	0.000754105
0.8045	0.001079685
0.805	0.001190441
0.8055	0.001049695
0.806	0.00073792
0.8065	0.000370659
0.807	8.02E-05
0.8075	2.08E-05
0.808	0.000249104
0.8085	0.000580124
0.809	0.000707982
0.8095	0.000541339
0.81	0.00030766
0.8105	0.000243838
0.811	0.000299349
0.8115	0.000266488
0.812	0.000110145
0.8125	-1.99E-06
0.813	2.17E-05
0.8135	5.15E-05
0.814	-7.55E-05
0.8145	-0.000324962
0.815	-0.000497761
0.8155	-0.000441678
0.816	-0.000164545
0.8165	0.000223167
0.817	0.000586951
0.8175	0.000782815
0.818	0.000693331
0.8185	0.000333791
0.819	-0.000101322
0.8195	-0.000371749
0.82	-0.000391222
0.8205	-0.000269277
0.821	-0.000167832
0.8215	-0.000167655
0.822	-0.000271877
0.8225	-0.000452774
0.823	-0.000634646
0.8235	-0.000694874
0.824	-0.000583639
0.8245	-0.000419748
0.825	-0.000356045
0.8255	-0.000358627
0.826	-0.000267695
0.8265	-0.000101509
0.827	-0.000102665
0.8275	-0.000376228
0.828	-0.000679759
0.8285	-0.00075534
0.829	-0.000696161
0.8295	-0.000730426
0.83	-0.000769393
0.8305	-0.000496511
0.831	0.000111083
0.8315	0.000666471
0.832	0.000847985
0.8325	0.000732053
0.833	0.00055109
0.8335	0.000349616
0.834	4.51E-05
0.8345	-0.000308889
0.835	-0.000500698
0.8355	-0.00039324
0.836	-0.000112117
0.8365	8.58E-06
0.837	-0.000299959
0.8375	-0.000964601
0.838	-0.001594561
0.8385	-0.001841347
0.839	-0.001691371
0.8395	-0.00134711
0.84	-0.000921694
0.8405	-0.000387024
0.841	0.000240067
0.8415	0.000827952
0.842	0.001253927
0.8425	0.001489698
0.843	0.001568892
0.8435	0.001554019
0.844	0.001504202
0.8445	0.001388035
0.845	0.001081874
0.8455	0.000566379
0.846	6.79E-05
0.8465	-0.0001419
0.847	-6.62E-05
0.8475	3.90E-05
0.848	-1.10E-06
0.8485	-0.000108338
0.849	-0.000123671
0.8495	-3.60E-06
0.85	0.000208186
0.8505	0.000483007
0.851	0.00078891
0.8515	0.001034324
0.852	0.001119614
0.8525	0.001029066
0.853	0.000813553
0.8535	0.000497441
0.854	7.01E-05
0.8545	-0.000421349
0.855	-0.000843295
0.8555	-0.001090539
0.856	-0.001194067
0.8565	-0.001256615
0.857	-0.001298458
0.8575	-0.00123232
0.858	-0.001002575
0.8585	-0.000688652
0.859	-0.000423653
0.8595	-0.000239435
0.86	-5.63E-05
0.8605	0.000163721
0.861	0.000322083
0.8615	0.000304763
0.862	0.00016127
0.8625	7.50E-05
0.863	0.000147395
0.8635	0.000288168
0.864	0.000345585
0.8645	0.000281165
0.865	0.000185212
0.8655	0.000169749
0.866	0.00026859
0.8665	0.000399388
0.867	0.000418816
0.8675	0.000270841
0.868	8.30E-05
0.8685	5.01E-05
0.869	0.000214261
0.8695	0.000422977
0.87	0.000505074
0.8705	0.000412364
0.871	0.000192008
0.8715	-6.80E-05
0.872	-0.000225441
0.8725	-0.00012984
0.873	0.000222543
0.8735	0.000628395
0.874	0.000852076
0.8745	0.000833746
0.875	0.000673831
0.8755	0.000467103
0.876	0.000239315
0.8765	1.61E-05
0.877	-0.000149089
0.8775	-0.000230527
0.878	-0.000244587
0.8785	-0.000202422
0.879	-0.000105259
0.8795	1.35E-05
0.88	0.000101292
0.8805	0.000139029
0.881	0.000127091
0.8815	3.55E-05
0.882	-0.000156274
0.8825	-0.000384336
0.883	-0.000552677
0.8835	-0.000658209
0.884	-0.000770356
0.8845	-0.000892712
0.885	-0.000961905
0.8855	-0.000989865
0.886	-0.001057324
0.8865	-0.001118479
0.887	-0.000976395
0.8875	-0.000557571
0.888	-6.61E-05
0.8885	0.000277978
0.889	0.000526296
0.8895	0.000840399
0.89	0.001142244
0.8905	0.001169101
0.891	0.000857979
0.8915	0.000435885
0.892	9.92E-05
0.8925	-0.000163455
0.893	-0.000370916
0.8935	-0.000418698
0.894	-0.000274399
0.8945	-9.95E-05
0.895	-3.41E-05
0.8955	-2.93E-05
0.896	-1.75E-05
0.8965	-6.03E-05
0.897	-0.000172969
0.8975	-0.000185596
0.898	1.91E-05
0.8985	0.000266138
0.899	0.000297897
0.8995	0.000137834
0.9	3.72E-05
0.9005	9.36E-05
0.901	0.000120203
0.9015	-7.61E-05
0.902	-0.000436413
0.9025	-0.000735687
0.903	-0.000824254
0.9035	-0.000698295
0.904	-0.000395684
0.9045	5.13E-05
0.905	0.000541618
0.9055	0.000887298
0.906	0.000946511
0.9065	0.000731236
0.907	0.000328724
0.9075	-0.000218957
0.908	-0.000851307
0.9085	-0.001347659
0.909	-0.001418006
0.9095	-0.001000309
0.91	-0.00035181
0.9105	0.000235903
0.911	0.000708582
0.9115	0.001137288
0.912	0.001449852
0.9125	0.001451226
0.913	0.001085125
0.9135	0.000526053
0.914	1.13E-05
0.9145	-0.000301063
0.915	-0.000335059
0.9155	-0.00012082
0.916	0.000161776
0.9165	0.000304972
0.917	0.000282685
0.9175	0.000230543
0.918	0.000201385
0.9185	8.34E-05
0.919	-0.000185214
0.9195	-0.000458542
0.92	-0.000534943
0.9205	-0.000372132
0.921	-6.94E-05
0.9215	0.000266781
0.922	0.000535672
0.9225	0.000607694
0.923	0.000422859
0.9235	0.000100916
0.924	-0.00016302
0.9245	-0.000306961
0.925	-0.000413617
0.9255	-0.00053655
0.926	-0.000631564
0.9265	-0.000660589
0.927	-0.000636797
0.9275	-0.000533031
0.928	-0.000263138
0.9285	0.000176871
0.929	0.000625807
0.9295	0.00088244
0.93	0.00087346
0.9305	0.000669325
0.931	0.000396522
0.9315	0.000173574
0.932	7.03E-05
0.9325	6.74E-05
0.933	8.03E-05
0.9335	6.42E-05
0.934	7.19E-05
0.9345	0.000173617
0.935	0.000330608
0.9355	0.000386223
0.936	0.000203954
0.9365	-0.000181506
0.937	-0.000561703
0.9375	-0.000723691
0.938	-0.000624566
0.9385	-0.000382143
0.939	-0.000113679
0.9395	0.000154111
0.94	0.000409515
0.9405	0.000582233
0.941	0.000611427
0.9415	0.000529081
0.942	0.000394841
0.9425	0.000183328
0.943	-0.000175714
0.9435	-0.000657093
0.944	-0.001122486
0.9445	-0.001445687
0.945	-0.001587074
0.9455	-0.001550835
0.946	-0.001358751
0.9465	-0.001089608
0.947	-0.000870472
0.9475	-0.000796425
0.948	-0.000899732
0.9485	-0.001176203
0.949	-0.001543722
0.9495	-0.001777462
0.95	-0.001624794
0.9505	-0.001050808
0.951	-0.000280398
0.9515	0.000454201
0.952	0.001114219
0.9525	0.001747104
0.953	0.002281953
0.9535	0.002531803
0.954	0.0023545
0.9545	0.001743121
0.955	0.000808943
0.9555	-0.000235609
0.956	-0.00109507
0.9565	-0.001493264
0.957	-0.00132579
0.9575	-0.000721263
0.958	4.43E-05
0.9585	0.000691113
0.959	0.001041724
0.9595	0.001076265
0.96	0.000928228
0.9605	0.000783957
0.961	0.000738442
0.9615	0.000764261
0.962	0.000824385
0.9625	0.000937838
0.963	0.001086358
0.9635	0.001148094
0.964	0.001031407
0.9645	0.000826623
0.965	0.000710788
0.9655	0.000719551
0.966	0.000719184
0.9665	0.000601689
0.967	0.000404149
0.9675	0.000216473
0.968	6.53E-05
0.9685	-6.57E-05
0.969	-0.00016657
0.9695	-0.000210694
0.97	-0.000205656
0.9705	-0.000190281
0.971	-0.000187864
0.9715	-0.000189485
0.972	-0.000180458
0.9725	-0.000162159
0.973	-0.000145698
0.9735	-0.00014119
0.974	-0.000158015
0.9745	-0.000194515
0.975	-0.000214074
0.9755	-0.000161473
0.976	-4.06E-05
0.9765	4.75E-05
0.977	-1.10E-06
0.9775	-0.000177941
0.978	-0.000403574
0.9785	-0.000654479
0.979	-0.000938339
0.9795	-0.001152197
0.98	-0.001120924
0.9805	-0.000839383
0.981	-0.000547748
0.9815	-0.000476133
0.982	-0.000610499
0.9825	-0.000797451
0.983	-0.000980988
0.9835	-0.001206566
0.984	-0.001436495
0.9845	-0.001503164
0.985	-0.001290261
0.9855	-0.000891479
0.986	-0.000523685
0.9865	-0.000288744
0.987	-7.53E-05
0.9875	0.000273369
0.988	0.000736348
0.9885	0.001117333
0.989	0.001253531
0.9895	0.001160409
0.99	0.000977203
0.9905	0.000837167
0.991	0.00079796
0.9915	0.000834096
0.992	0.000869123
0.9925	0.000839117
0.993	0.000724588
0.9935	0.000516679
0.994	0.000212818
0.9945	-0.00010608
0.995	-0.000267338
0.9955	-0.000173144
0.996	5.83E-05
0.9965	0.00020864
0.997	0.00019079
0.9975	8.34E-05
0.998	-2.78E-05
0.9985	-0.000128468
0.999	-0.000201851
0.9995	-0.000192974
1	-8.86E-05
1.0005	3.81E-05
1.001	0.000107185
1.0015	0.000119875
1.002	0.000135234
1.0025	0.00017873
1.003	0.000201812
1.0035	0.000137511
1.004	-9.84E-06
1.0045	-0.000142536
1.005	-0.000151776
1.0055	-2.33E-05
1.006	0.000148676
1.0065	0.000250637
1.007	0.000243146
1.0075	0.00017496
1.008	0.00012604
1.0085	0.000139381
1.009	0.000190635
1.0095	0.000211662
1.01	0.000147281
1.0105	-5.70E-08
1.011	-0.000169069
1.0115	-0.00027543
1.012	-0.000259223
1.0125	-0.000121369
1.013	7.27E-05
1.0135	0.000232254
1.014	0.00029871
1.0145	0.000273229
1.015	0.00019981
1.0155	0.000130735
1.016	0.00010134
1.0165	0.000111873
1.017	0.000114625
1.0175	3.23E-05
1.018	-0.000174606
1.0185	-0.00044029
1.019	-0.000617503
1.0195	-0.000608933
1.02	-0.000479088
1.0205	-0.000401336
1.021	-0.000476591
1.0215	-0.000632399
1.022	-0.000723562
1.0225	-0.000699095
1.023	-0.000624761
1.0235	-0.000562285
1.024	-0.00049786
1.0245	-0.000411712
1.025	-0.0003538
1.0255	-0.000384946
1.026	-0.000464262
1.0265	-0.000470337
1.027	-0.000356798
1.0275	-0.00022876
1.028	-0.000216555
1.0285	-0.000305569
1.029	-0.000345325
1.0295	-0.000217572
1.03	4.72E-05
1.0305	0.000313966
1.031	0.00046696
1.0315	0.000494882
1.032	0.0004829
1.0325	0.00052081
1.033	0.000611343
1.0335	0.000683349
1.034	0.00068703
1.0345	0.000633985
1.035	0.000548143
1.0355	0.000440556
1.036	0.000340989
1.0365	0.000281211
1.037	0.000225294
1.0375	9.59E-05
1.038	-8.76E-05
1.0385	-0.000167162
1.039	-1.03E-05
1.0395	0.00031621
1.04	0.000585081
1.0405	0.000612432
1.041	0.000403986
1.0415	0.000122551
1.042	-6.06E-05
1.0425	-8.70E-05
1.043	-1.11E-05
1.0435	8.23E-05
1.044	0.000134536
1.0445	0.000112839
1.045	2.09E-05
1.0455	-8.32E-05
1.046	-0.000139127
1.0465	-0.000162074
1.047	-0.000199724
1.0475	-0.000205582
1.048	-6.18E-05
1.0485	0.000224398
1.049	0.000447792
1.0495	0.00041614
1.05	0.00017026
1.0505	-8.73E-05
1.051	-0.000228195
1.0515	-0.000268295
1.052	-0.000243413
1.0525	-0.000139053
1.053	3.66E-05
1.0535	0.000205151
1.054	0.000288238
1.0545	0.000269012
1.055	0.000155768
1.0555	-4.48E-05
1.056	-0.000269146
1.0565	-0.000378381
1.057	-0.000283034
1.0575	-6.41E-05
1.058	9.95E-05
1.0585	0.00011839
1.059	5.27E-05
1.0595	1.71E-06
1.06	4.51E-06
1.0605	5.20E-05
1.061	0.000116127
1.0615	0.000129388
1.062	-6.37E-07
1.0625	-0.000294289
1.063	-0.00064729
1.0635	-0.000921172
1.064	-0.001054704
1.0645	-0.001039742
1.065	-0.000839568
1.0655	-0.000427157
1.066	0.000107278
1.0665	0.000586419
1.067	0.000902836
1.0675	0.001067366
1.068	0.001091889
1.0685	0.000932362
1.069	0.000603541
1.0695	0.000258497
1.07	6.35E-05
1.0705	3.42E-05
1.071	6.41E-05
1.0715	7.56E-05
1.072	7.06E-05
1.0725	6.11E-05
1.073	3.87E-05
1.0735	1.03E-05
1.074	-1.00E-05
1.0745	-5.60E-05
1.075	-0.000184204
1.0755	-0.00036606
1.076	-0.000468535
1.0765	-0.000391586
1.077	-0.000191439
1.0775	-1.76E-05
1.078	5.63E-05
1.0785	9.34E-05
1.079	0.000189444
1.0795	0.000354197
1.08	0.000515374
1.0805	0.000606515
1.081	0.0006178
1.0815	0.000573538
1.082	0.000498531
1.0825	0.000411596
1.083	0.000318387
1.0835	0.000196972
1.084	2.05E-05
1.0845	-0.000188031
1.085	-0.000353927
1.0855	-0.000429878
1.086	-0.000454766
1.0865	-0.000503684
1.087	-0.000588656
1.0875	-0.000632034
1.088	-0.000545184
1.0885	-0.000339949
1.089	-0.00016433
1.0895	-0.000194408
1.09	-0.00045409
1.0905	-0.000765333
1.091	-0.00092104
1.0915	-0.000883603
1.092	-0.000765777
1.0925	-0.000656926
1.093	-0.0005483
1.0935	-0.000405979
1.094	-0.000228126
1.0945	-3.92E-05
1.095	8.62E-05
1.0955	9.35E-06
1.096	-0.000341882
1.0965	-0.000796107
1.097	-0.00100047
1.0975	-0.000745915
1.098	-0.000191116
1.0985	0.000297828
1.099	0.000502474
1.0995	0.000492853
1.1	0.000453541
1.1005	0.000474345
1.101	0.000532444
1.1015	0.000572289
1.102	0.000524275
1.1025	0.000320594
1.103	-3.03E-06
1.1035	-0.000265908
1.104	-0.000313299
1.1045	-0.000208472
1.105	-0.000152179
1.1055	-0.000229019
1.106	-0.000342658
1.1065	-0.000387737
1.107	-0.000355617
1.1075	-0.000254861
1.108	-5.73E-05
1.1085	0.000229686
1.109	0.000539051
1.1095	0.000835947
1.11	0.001132257
1.1105	0.001364422
1.111	0.001371818
1.1115	0.001083467
1.112	0.00064953
1.1125	0.000309266
1.113	0.000188422
1.1135	0.000274663
1.114	0.000488514
1.1145	0.00068648
1.115	0.000690673
1.1155	0.000450727
1.116	0.000139581
1.1165	-1.66E-05
1.117	2.46E-05
1.1175	0.000134905
1.118	0.000210137
1.1185	0.000246254
1.119	0.000259503
1.1195	0.00025098
1.12	0.000242435
1.1205	0.000242415
1.121	0.000174907
1.1215	-5.71E-05
1.122	-0.000413722
1.1225	-0.000706625
1.123	-0.000789243
1.1235	-0.000715439
1.124	-0.000673468
1.1245	-0.000776946
1.125	-0.000945105
1.1255	-0.001001142
1.126	-0.000876182
1.1265	-0.000660941
1.127	-0.000424499
1.1275	-7.28E-05
1.128	0.00048704
1.1285	0.001083243
1.129	0.001348022
1.1295	0.001090879
1.13	0.000484444
1.1305	-0.00014667
1.131	-0.00059165
1.1315	-0.000777208
1.132	-0.000689801
1.1325	-0.000386189
1.133	-1.89E-06
1.1335	0.000333908
1.134	0.000552621
1.1345	0.000604046
1.135	0.000455355
1.1355	0.000167714
1.136	-0.000119001
1.1365	-0.000322207
1.137	-0.000460421
1.1375	-0.000534299
1.138	-0.000456812
1.1385	-0.000155914
1.139	0.00030504
1.1395	0.000743142
1.14	0.00097587
1.1405	0.000950583
1.141	0.000785534
1.1415	0.00062662
1.142	0.000426616
1.1425	-2.92E-05
1.143	-0.000791098
1.1435	-0.001548201
1.144	-0.00189737
1.1445	-0.001746149
1.145	-0.001330399
1.1455	-0.000902764
1.146	-0.000544424
1.1465	-0.000240612
1.147	1.62E-05
1.1475	0.000224256
1.148	0.000378704
1.1485	0.000458044
1.149	0.000458679
1.1495	0.000439609
1.15	0.000475293
1.1505	0.000566204
1.151	0.000646131
1.1515	0.000671994
1.152	0.000652039
1.1525	0.000587502
1.153	0.000455271
1.1535	0.000277104
1.154	0.000147105
1.1545	0.000133646
1.155	0.000186185
1.1555	0.00020597
1.156	0.00019359
1.1565	0.00024313
1.157	0.000381646
1.1575	0.000515548
1.158	0.000582908
1.1585	0.00065319
1.159	0.00078474
1.1595	0.000874146
1.16	0.00077421
1.1605	0.000500432
1.161	0.000182225
1.1615	-0.000137418
1.162	-0.000482311
1.1625	-0.000750339
1.163	-0.000753902
1.1635	-0.000509533
1.164	-0.000305497
1.1645	-0.00037984
1.165	-0.000669131
1.1655	-0.000986405
1.166	-0.001314298
1.1665	-0.001750102
1.167	-0.00222014
1.1675	-0.002435886
1.168	-0.002174099
1.1685	-0.001496409
1.169	-0.000665473
1.1695	5.89E-05
1.17	0.000513572
1.1705	0.000657098
1.171	0.000611182
1.1715	0.000603597
1.172	0.000733392
1.1725	0.000814763
1.173	0.000585427
1.1735	7.40E-05
1.174	-0.000378973
1.1745	-0.000500185
1.175	-0.000345046
1.1755	-0.000117038
1.176	0.000120475
1.1765	0.000420344
1.177	0.000739687
1.1775	0.000916711
1.178	0.000852069
1.1785	0.000613376
1.179	0.000359389
1.1795	0.000220523
1.18	0.000234272
1.1805	0.000338108
1.181	0.000435811
1.1815	0.000506028
1.182	0.000614127
1.1825	0.000777135
1.183	0.000868852
1.1835	0.000745654
1.184	0.000457527
1.1845	0.000238627
1.185	0.000244274
1.1855	0.000364249
1.186	0.000365988
1.1865	0.00017729
1.187	-7.01E-05
1.1875	-0.000258809
1.188	-0.0004136
1.1885	-0.000566065
1.189	-0.000634348
1.1895	-0.000559419
1.19	-0.000466763
1.1905	-0.000528164
1.191	-0.000696202
1.1915	-0.000741443
1.192	-0.000562271
1.1925	-0.000308848
1.193	-0.000175142
1.1935	-0.000210393
1.194	-0.000367776
1.1945	-0.000583573
1.195	-0.000740033
1.1955	-0.000690765
1.196	-0.000429195
1.1965	-0.000151555
1.197	-7.04E-05
1.1975	-0.000218722
1.198	-0.000484224
1.1985	-0.000764157
1.199	-0.001023832
1.1995	-0.001258083
1.2	-0.001470472
1.2005	-0.00167925
1.201	-0.001866829
1.2015	-0.001930636
1.202	-0.001714913
1.2025	-0.001154711
1.203	-0.000383286
1.2035	0.000353484
1.204	0.000904809
1.2045	0.001292867
1.205	0.001582104
1.2055	0.001768709
1.206	0.00185933
1.2065	0.001957089
1.207	0.002141557
1.2075	0.002307036
1.208	0.002254623
1.2085	0.001947575
1.209	0.001563247
1.2095	0.001271049
1.21	0.001055626
1.2105	0.000800687
1.211	0.000479875
1.2115	0.000216466
1.212	0.000181163
1.2125	0.000444501
1.213	0.000891582
1.2135	0.001264081
1.214	0.001327615
1.2145	0.001049882
1.215	0.000633213
1.2155	0.000361427
1.216	0.000384327
1.2165	0.000609977
1.217	0.000777315
1.2175	0.000639522
1.218	0.000122486
1.2185	-0.000629939
1.219	-0.00132857
1.2195	-0.001691524
1.22	-0.001610188
1.2205	-0.001222263
1.221	-0.000817907
1.2215	-0.000642767
1.222	-0.000755288
1.2225	-0.001023056
1.223	-0.001217054
1.2235	-0.001141207
1.224	-0.00076435
1.2245	-0.000281846
1.225	-3.14E-06
1.2255	-9.77E-05
1.226	-0.000434446
1.2265	-0.00070989
1.227	-0.000737337
1.2275	-0.000563182
1.228	-0.000308053
1.2285	-2.19E-07
1.229	0.000364178
1.2295	0.000683812
1.23	0.000811029
1.2305	0.000739528
1.231	0.000613484
1.2315	0.000525224
1.232	0.000412552
1.2325	0.000206814
1.233	-1.63E-05
1.2335	-0.000116417
1.234	-5.63E-05
1.2345	8.71E-05
1.235	0.000234337
1.2355	0.000350877
1.236	0.000427448
1.2365	0.000497381
1.237	0.000640303
1.2375	0.000872863
1.238	0.001054329
1.2385	0.00101026
1.239	0.000755977
1.2395	0.00047949
1.24	0.000270963
1.2405	5.06E-06
1.241	-0.000416169
1.2415	-0.000820595
1.242	-0.000922973
1.2425	-0.000688399
1.243	-0.000392479
1.2435	-0.000306696
1.244	-0.000443434
1.2445	-0.000644839
1.245	-0.000813962
1.2455	-0.00098644
1.246	-0.00123318
1.2465	-0.00155755
1.247	-0.001864156
1.2475	-0.001999082
1.248	-0.001866645
1.2485	-0.001549763
1.249	-0.001263144
1.2495	-0.001112581
1.25	-0.000934453
1.2505	-0.000480522
1.251	0.000225465
1.2515	0.000824796
1.252	0.000974409
1.2525	0.00067602
1.253	0.000190805
1.2535	-0.000270155
1.254	-0.000645111
1.2545	-0.000892931
1.255	-0.000959353
1.2555	-0.00088474
1.256	-0.00077508
1.2565	-0.000620732
1.257	-0.000309305
1.2575	0.000112436
1.258	0.00037169
1.2585	0.000293732
1.259	4.34E-05
1.2595	-0.00010397
1.26	-8.99E-05
1.2605	4.69E-06
1.261	0.000220321
1.2615	0.000648066
1.262	0.00115536
1.2625	0.001432799
1.263	0.001339484
1.2635	0.001023498
1.264	0.000689761
1.2645	0.000427269
1.265	0.000295648
1.2655	0.000394506
1.266	0.000733795
1.2665	0.001126073
1.267	0.001313663
1.2675	0.001200451
1.268	0.000936107
1.2685	0.000785217
1.269	0.000898705
1.2695	0.001166945
1.27	0.001298426
1.2705	0.0010885
1.271	0.000616453
1.2715	0.000146149
1.272	-0.000150856
1.2725	-0.000313358
1.273	-0.000435258
1.2735	-0.000479839
1.274	-0.000314345
1.2745	9.92E-05
1.275	0.000614115
1.2755	0.001013909
1.276	0.001179778
1.2765	0.001122085
1.277	0.00089324
1.2775	0.000544019
1.278	0.000167697
1.2785	-0.000108325
1.279	-0.00024446
1.2795	-0.000344445
1.28	-0.000503402
1.2805	-0.000642018
1.281	-0.000602343
1.2815	-0.000401077
1.282	-0.000267267
1.2825	-0.000384908
1.283	-0.000679476
1.2835	-0.000905448
1.284	-0.000884139
1.2845	-0.000620983
1.285	-0.000261653
1.2855	7.10E-06
1.286	6.60E-05
1.2865	-5.57E-05
1.287	-0.000219635
1.2875	-0.000319558
1.288	-0.000338541
1.2885	-0.000260801
1.289	-4.38E-05
1.2895	0.000238658
1.29	0.000333893
1.2905	4.55E-05
1.291	-0.000490848
1.2915	-0.000893229
1.292	-0.000901331
1.2925	-0.000568186
1.293	-0.000107802
1.2935	0.000318971
1.294	0.000641419
1.2945	0.000828
1.295	0.000888176
1.2955	0.000878283
1.296	0.000837239
1.2965	0.000729003
1.297	0.000490262
1.2975	0.000134074
1.298	-0.000218082
1.2985	-0.000419034
1.299	-0.000415122
1.2995	-0.000282439
1.3	-0.000138416
1.3005	-3.42E-05
1.301	3.22E-05
1.3015	2.18E-05
1.302	-0.00013893
1.3025	-0.000429253
1.303	-0.000698872
1.3035	-0.000829341
1.304	-0.000876569
1.3045	-0.000982047
1.305	-0.00117138
1.3055	-0.001301609
1.306	-0.001201004
1.3065	-0.000837775
1.307	-0.000382462
1.3075	-0.000125742
1.308	-0.000276576
1.3085	-0.000771922
1.309	-0.001289902
1.3095	-0.001493565
1.31	-0.001283139
1.3105	-0.000830124
1.311	-0.000405044
1.3115	-0.000177762
1.312	-0.000124678
1.3125	-6.85E-05
1.313	0.000180799
1.3135	0.000659
1.314	0.001177605
1.3145	0.001440205
1.315	0.001284155
1.3155	0.000835845
1.316	0.000411602
1.3165	0.000248264
1.317	0.000335881
1.3175	0.000498694
1.318	0.00058071
1.3185	0.00052062
1.319	0.000309494
1.3195	-2.29E-05
1.32	-0.000360618
1.3205	-0.000521716
1.321	-0.000405998
1.3215	-0.000123819
1.322	6.99E-05
1.3225	-8.17E-07
1.323	-0.000271965
1.3235	-0.000496205
1.324	-0.000461172
1.3245	-0.000179247
1.325	0.000115472
1.3255	0.000176042
1.326	-1.91E-05
1.3265	-0.000234428
1.327	-0.000197518
1.3275	0.000149286
1.328	0.000615854
1.3285	0.000951624
1.329	0.001044023
1.3295	0.000961176
1.33	0.000853249
1.3305	0.000827015
1.331	0.000884054
1.3315	0.000952078
1.332	0.000980179
1.3325	0.001003108
1.333	0.00107789
1.3335	0.00114416
1.334	0.001014739
1.3345	0.00058352
1.335	1.75E-05
1.3355	-0.000347148
1.336	-0.000314269
1.3365	2.19E-05
1.337	0.000416903
1.3375	0.000676697
1.338	0.000709468
1.3385	0.000496226
1.339	0.000109404
1.3395	-0.000269201
1.34	-0.000443092
1.3405	-0.000351881
1.341	-9.94E-05
1.3415	0.000178471
1.342	0.000427518
1.3425	0.000636541
1.343	0.000752127
1.3435	0.000702673
1.344	0.000471583
1.3445	8.33E-05
1.345	-0.000435536
1.3455	-0.000992504
1.346	-0.001375065
1.3465	-0.00138655
1.347	-0.001045156
1.3475	-0.000554912
1.348	-8.46E-05
1.3485	0.000323467
1.349	0.000634643
1.3495	0.000751631
1.35	0.00062115
1.3505	0.000318094
1.351	-3.68E-05
1.3515	-0.000378161
1.352	-0.000674988
1.3525	-0.000891316
1.353	-0.001037649
1.3535	-0.001187061
1.354	-0.001340684
1.3545	-0.001320682
1.355	-0.000924009
1.3555	-0.000209684
1.356	0.000455584
1.3565	0.00069671
1.357	0.000449791
1.3575	-2.77E-05
1.358	-0.000407594
1.3585	-0.000515515
1.359	-0.000380077
1.3595	-0.000173123
1.36	-0.00011708
1.3605	-0.000350622
1.361	-0.000802203
1.3615	-0.001221534
1.362	-0.001395208
1.3625	-0.001320828
1.363	-0.001136938
1.3635	-0.000934943
1.364	-0.000720541
1.3645	-0.00051255
1.365	-0.000341028
1.3655	-0.000136105
1.366	0.000230696
1.3665	0.000720852
1.367	0.001069635
1.3675	0.001069795
1.368	0.000841379
1.3685	0.000699824
1.369	0.000794387
1.3695	0.000988227
1.37	0.001077692
1.3705	0.001017004
1.371	0.000905964
1.3715	0.000841918
1.372	0.000828266
1.3725	0.000790123
1.373	0.000653412
1.3735	0.000424676
1.374	0.000188464
1.3745	9.49E-07
1.375	-0.00019065
1.3755	-0.00046955
1.376	-0.000799545
1.3765	-0.001017944
1.377	-0.000997397
1.3775	-0.000778199
1.378	-0.000534699
1.3785	-0.000447193
1.379	-0.000602023
1.3795	-0.000952899
1.38	-0.001329139
1.3805	-0.00149495
1.381	-0.001272335
1.3815	-0.000699722
1.382	-0.000103533
1.3825	7.83E-05
1.383	-0.000320363
1.3835	-0.00096167
1.384	-0.001246159
1.3845	-0.000857588
1.385	-4.89E-05
1.3855	0.000638623
1.386	0.000898709
1.3865	0.000840454
1.387	0.000683938
1.3875	0.000445833
1.388	6.26E-05
1.3885	-0.000285648
1.389	-0.000239162
1.3895	0.000284063
1.39	0.00090268
1.3905	0.001184303
1.391	0.00111156
1.3915	0.000997071
1.392	0.001045884
1.3925	0.001175303
1.393	0.00121819
1.3935	0.001132668
1.394	0.000990615
1.3945	0.000874994
1.395	0.000825017
1.3955	0.000811278
1.396	0.000739427
1.3965	0.000534971
1.397	0.000249673
1.3975	4.01E-05
1.398	1.35E-05
1.3985	0.000122044
1.399	0.000229884
1.3995	0.000259735
1.4	0.000248079
1.4005	0.000267868
1.401	0.000326837
1.4015	0.000355327
1.402	0.000281994
1.4025	9.99E-05
1.403	-0.000140996
1.4035	-0.00037126
1.404	-0.000511021
1.4045	-0.000484883
1.405	-0.000293598
1.4055	-6.68E-05
1.406	2.46E-05
1.4065	-6.04E-05
1.407	-0.000192073
1.4075	-0.000231738
1.408	-0.000190335
1.4085	-0.000176721
1.409	-0.000228583
1.4095	-0.000283681
1.41	-0.000316197
1.4105	-0.000387099
1.411	-0.000498242
1.4115	-0.000500521
1.412	-0.000272582
1.4125	5.75E-05
1.413	0.00021214
1.4135	8.20E-05
1.414	-0.000193096
1.4145	-0.000476388
1.415	-0.000796953
1.4155	-0.001188992
1.416	-0.001536377
1.4165	-0.001725351
1.417	-0.001832291
1.4175	-0.001971063
1.418	-0.002019463
1.4185	-0.001714542
1.419	-0.001028857
1.4195	-0.0002545
1.42	0.000332275
1.4205	0.000702978
1.421	0.000907357
1.4215	0.000885131
1.422	0.000605022
1.4225	0.000244931
1.423	4.97E-05
1.4235	8.43E-05
1.424	0.00026516
1.4245	0.000541586
1.425	0.000882451
1.4255	0.001164168
1.426	0.001266162
1.4265	0.001251044
1.427	0.001268978
1.4275	0.001281047
1.428	0.00106133
1.4285	0.000536787
1.429	-2.08E-05
1.4295	-0.000255907
1.43	-0.000115524
1.4305	0.000127591
1.431	0.000207203
1.4315	0.000113512
1.432	4.91E-06
1.4325	-9.08E-06
1.433	8.09E-05
1.4335	0.000258077
1.434	0.000470884
1.4345	0.000582421
1.435	0.000478917
1.4355	0.000250645
1.436	0.000130555
1.4365	0.000207398
1.437	0.000319975
1.4375	0.000283751
1.438	9.83E-05
1.4385	-0.000119051
1.439	-0.000263241
1.4395	-0.000245046
1.44	-2.80E-05
1.4405	0.000248834
1.441	0.000347616
1.4415	0.000227759
1.442	8.76E-05
1.4425	9.35E-06
1.443	-0.000205639
1.4435	-0.000672866
1.444	-0.001129329
1.4445	-0.001260273
1.445	-0.00114666
1.4455	-0.001093579
1.446	-0.001128841
1.4465	-0.000989205
1.447	-0.000572048
1.4475	-0.000108784
1.448	0.000147269
1.4485	0.000185004
1.449	0.000145215
1.4495	0.000145677
1.45	0.000248383
1.4505	0.000465324
1.451	0.00073018
1.4515	0.000914644
1.452	0.000886029
1.4525	0.00055705
1.453	-1.39E-05
1.4535	-0.000515095
1.454	-0.000522287
1.4545	9.55E-05
1.455	0.000979238
1.4555	0.001609404
1.456	0.001763071
1.4565	0.001543809
1.457	0.00109554
1.4575	0.000497237
1.458	-0.00011237
1.4585	-0.000538235
1.459	-0.000716196
1.4595	-0.000765942
1.46	-0.000811322
1.4605	-0.000835385
1.461	-0.000739712
1.4615	-0.000476961
1.462	-0.000102
1.4625	0.000265685
1.463	0.000519538
1.4635	0.000620102
1.464	0.000566422
1.4645	0.000341863
1.465	-4.62E-05
1.4655	-0.000490185
1.466	-0.000843942
1.4665	-0.001067556
1.467	-0.001220678
1.4675	-0.001317689
1.468	-0.001302473
1.4685	-0.00116721
1.469	-0.000967343
1.4695	-0.000702919
1.47	-0.000322538
1.4705	0.000111322
1.471	0.000383321
1.4715	0.000314607
1.472	-9.10E-05
1.4725	-0.000716384
1.473	-0.00142404
1.4735	-0.002010281
1.474	-0.002194356
1.4745	-0.001818517
1.475	-0.001056477
1.4755	-0.000309992
1.476	0.000135718
1.4765	0.000297243
1.477	0.000345914
1.4775	0.00039386
1.478	0.000486854
1.4785	0.000698102
1.479	0.001071886
1.4795	0.001467248
1.48	0.001590326
1.4805	0.001271736
1.481	0.000675419
1.4815	0.000170796
1.482	6.48E-06
1.4825	0.000141126
1.483	0.000363256
1.4835	0.000500603
1.484	0.000492417
1.4845	0.000340923
1.485	9.85E-05
1.4855	-9.89E-05
1.486	-0.00010029
1.4865	9.07E-05
1.487	0.00028746
1.4875	0.000338076
1.488	0.000299147
1.4885	0.000290746
1.489	0.000256091
1.4895	3.10E-05
1.49	-0.000361854
1.4905	-0.000659409
1.491	-0.000648276
1.4915	-0.00038625
1.492	-8.04E-05
1.4925	0.000158878
1.493	0.000378762
1.4935	0.000661884
1.494	0.001002026
1.4945	0.001286411
1.495	0.00138574
1.4955	0.001266477
1.496	0.000993799
1.4965	0.000623462
1.497	0.000164988
1.4975	-0.000303978
1.498	-0.000577422
1.4985	-0.000482847
1.499	-7.57E-05
1.4995	0.000405118
1.5	0.000747434
1.5005	0.000869247
1.501	0.000777096
1.5015	0.000537223
1.502	0.000275766
1.5025	0.000105256
1.503	3.24E-05
1.5035	-1.09E-05
1.504	-6.89E-05
1.5045	-0.000158135
1.505	-0.000312726
1.5055	-0.000522188
1.506	-0.000645713
1.5065	-0.000526541
1.507	-0.000226231
1.5075	-2.89E-05
1.508	-0.000144166
1.5085	-0.000480725
1.509	-0.000781131
1.5095	-0.000916506
1.51	-0.00096276
1.5105	-0.001021556
1.511	-0.001075733
1.5115	-0.001047201
1.512	-0.000902543
1.5125	-0.000624852
1.513	-0.000150899
1.5135	0.000529384
1.514	0.001213355
1.5145	0.001572206
1.515	0.001461476
1.5155	0.001043773
1.516	0.00055963
1.5165	0.000117644
1.517	-0.000214932
1.5175	-0.000300834
1.518	-9.18E-05
1.5185	0.000214
1.519	0.000354932
1.5195	0.000270849
1.52	3.37E-05
1.5205	-0.000359382
1.521	-0.000888711
1.5215	-0.001283952
1.522	-0.001179461
1.5225	-0.00054492
1.523	0.000238003
1.5235	0.000767279
1.524	0.000915155
1.5245	0.000719663
1.525	0.000220561
1.5255	-0.000460899
1.526	-0.001022198
1.5265	-0.001137577
1.527	-0.000729722
1.5275	-4.02E-05
1.528	0.000558049
1.5285	0.000814936
1.529	0.000728004
1.5295	0.00047087
1.53	0.000211918
1.5305	1.81E-06
1.531	-0.000186324
1.5315	-0.000371049
1.532	-0.000551703
1.5325	-0.000726037
1.533	-0.000852536
1.5335	-0.000833863
1.534	-0.000626736
1.5345	-0.000359798
1.535	-0.000243261
1.5355	-0.000327132
1.536	-0.00042373
1.5365	-0.000316912
1.537	8.98E-06
1.5375	0.00039222
1.538	0.000677139
1.5385	0.000804493
1.539	0.00078609
1.5395	0.000707343
1.54	0.000731687
1.5405	0.000963245
1.541	0.00127011
1.5415	0.001360549
1.542	0.001092263
1.5425	0.000611456
1.543	0.000140251
1.5435	-0.000244325
1.544	-0.00053347
1.5445	-0.000639165
1.545	-0.000507211
1.5455	-0.00031529
1.546	-0.000358398
1.5465	-0.000700766
1.547	-0.001072148
1.5475	-0.001160946
1.548	-0.00092265
1.5485	-0.000552267
1.549	-0.000230335
1.5495	2.52E-05
1.55	0.000280003
1.5505	0.000536126
1.551	0.000706824
1.5515	0.000722185
1.552	0.00061407
1.5525	0.000475977
1.553	0.000371427
1.5535	0.000312701
1.554	0.000291338
1.5545	0.000271897
1.555	0.000183667
1.5555	-2.69E-07
1.556	-0.000178242
1.5565	-0.000202909
1.557	-7.52E-05
1.5575	2.72E-05
1.558	-3.12E-05
1.5585	-0.000158936
1.559	-0.00014228
1.5595	9.22E-05
1.56	0.000385125
1.5605	0.000509382
1.561	0.000388936
1.5615	0.000158129
1.562	2.97E-05
1.5625	9.35E-05
1.563	0.000231509
1.5635	0.000249897
1.564	9.12E-05
1.5645	-0.000125606
1.565	-0.000262314
1.5655	-0.000279208
1.566	-0.000201401
1.5665	-8.40E-05
1.567	-4.14E-05
1.5675	-0.000177083
1.568	-0.000414287
1.5685	-0.000529068
1.569	-0.00045095
1.5695	-0.00040971
1.57	-0.000660097
1.5705	-0.001165789
1.571	-0.001686979
1.5715	-0.002070903
1.572	-0.002282606
1.5725	-0.002228527
1.573	-0.001775968
1.5735	-0.000987776
1.574	-0.000187564
1.5745	0.000300152
1.575	0.000446258
1.5755	0.000521268
1.576	0.0007917
1.5765	0.001201307
1.577	0.00139384
1.5775	0.001107889
1.578	0.00049427
1.5785	-5.89E-05
1.579	-0.000352498
1.5795	-0.000470882
1.58	-0.00049536
1.5805	-0.000348298
1.581	3.05E-05
1.5815	0.000535998
1.582	0.00100158
1.5825	0.001315064
1.583	0.001394725
1.5835	0.001206555
1.584	0.00085843
1.5845	0.000529017
1.585	0.000260282
1.5855	-2.07E-05
1.586	-0.000247138
1.5865	-0.00019911
1.587	0.000167554
1.5875	0.000597842
1.588	0.000870062
1.5885	0.001028123
1.589	0.001102417
1.5895	0.000840563
1.59	3.80E-05
1.5905	-0.00097351
1.591	-0.001523207
1.5915	-0.001324675
1.592	-0.000733492
1.5925	-0.000229224
1.593	8.64E-05
1.5935	0.000351039
1.594	0.000563588
1.5945	0.000595324
1.595	0.000463282
1.5955	0.000348862
1.596	0.000347102
1.5965	0.000365225
1.597	0.000287431
1.5975	0.000111975
1.598	-9.72E-05
1.5985	-0.000283659
1.599	-0.000390978
1.5995	-0.000373407
1.6	-0.000253566
1.6005	-0.000104163
1.601	4.41E-05
1.6015	0.00020449
1.602	0.000340353
1.6025	0.000373378
1.603	0.00031353
1.6035	0.000270755
1.604	0.000280707
1.6045	0.00022594
1.605	1.94E-05
1.6055	-0.000217972
1.606	-0.000275826
1.6065	-0.000111853
1.607	0.00011324
1.6075	0.000240843
1.608	0.00026063
1.6085	0.000252152
1.609	0.000270173
1.6095	0.000311106
1.61	0.000325084
1.6105	0.000237168
1.611	1.66E-05
1.6115	-0.000254943
1.612	-0.000449538
1.6125	-0.000547908
1.613	-0.00064337
1.6135	-0.000756429
1.614	-0.000757482
1.6145	-0.000557954
1.615	-0.000273126
1.6155	-7.65E-05
1.616	9.06E-06
1.6165	2.04E-05
1.617	-0.000141751
1.6175	-0.000577776
1.618	-0.001076936
1.6185	-0.001203354
1.619	-0.000781645
1.6195	-0.000107917
1.62	0.000414247
1.6205	0.000678833
1.621	0.000819242
1.6215	0.000922946
1.622	0.000972813
1.6225	0.000969029
1.623	0.000932623
1.6235	0.000825689
1.624	0.000621253
1.6245	0.000447278
1.625	0.000508118
1.6255	0.00080095
1.626	0.001015917
1.6265	0.000822201
1.627	0.000226396
1.6275	-0.00042699
1.628	-0.000798478
1.6285	-0.000831004
1.629	-0.00069997
1.6295	-0.000584421
1.63	-0.00052768
1.6305	-0.000455327
1.631	-0.00027335
1.6315	1.62E-05
1.632	0.000261571
1.6325	0.000267794
1.633	-5.49E-06
1.6335	-0.000387778
1.634	-0.000651058
1.6345	-0.000658411
1.635	-0.000373457
1.6355	0.000136381
1.636	0.0006517
1.6365	0.000902816
1.637	0.000824426
1.6375	0.000602795
1.638	0.000393134
1.6385	0.00013651
1.639	-0.000238154
1.6395	-0.00060479
1.64	-0.000800294
1.6405	-0.000851346
1.641	-0.000856257
1.6415	-0.000767676
1.642	-0.000505481
1.6425	-0.000189886
1.643	-2.70E-05
1.6435	-4.85E-06
1.644	7.01E-05
1.6445	0.000234475
1.645	0.000283317
1.6455	7.78E-05
1.646	-0.000244819
1.6465	-0.000468464
1.647	-0.000573137
1.6475	-0.000689216
1.648	-0.000860054
1.6485	-0.000988713
1.649	-0.000980423
1.6495	-0.000793493
1.65	-0.00036604
1.6505	0.000325521
1.651	0.001079633
1.6515	0.001504651
1.652	0.001344758
1.6525	0.000674604
1.653	-0.000261629
1.6535	-0.001221841
1.654	-0.001906744
1.6545	-0.001995285
1.655	-0.001473326
1.6555	-0.000772075
1.656	-0.000339659
1.6565	-0.000179179
1.657	-3.36E-05
1.6575	9.12E-05
1.658	-0.000111404
1.6585	-0.000771835
1.659	-0.001582709
1.6595	-0.00206594
1.66	-0.001944195
1.6605	-0.001257869
1.661	-0.000303597
1.6615	0.00052131
1.662	0.000990453
1.6625	0.001222781
1.663	0.001478749
1.6635	0.001787894
1.664	0.001926344
1.6645	0.001770191
1.665	0.001488001
1.6655	0.001305648
1.666	0.001228185
1.6665	0.001117279
1.667	0.000952225
1.6675	0.000859296
1.668	0.00088265
1.6685	0.000855498
1.669	0.000576409
1.6695	6.80E-05
1.67	-0.00041025
1.6705	-0.000598742
1.671	-0.000442592
1.6715	-8.16E-05
1.672	0.000282977
1.6725	0.000497866
1.673	0.000520796
1.6735	0.000448884
1.674	0.00045483
1.6745	0.000628327
1.675	0.000867945
1.6755	0.000958229
1.676	0.000765193
1.6765	0.000352613
1.677	-8.02E-05
1.6775	-0.00035688
1.678	-0.000437165
1.6785	-0.000416504
1.679	-0.000428631
1.6795	-0.000516632
1.68	-0.00057876
1.6805	-0.000477677
1.681	-0.000238545
1.6815	-9.15E-05
1.682	-0.000238816
1.6825	-0.000596449
1.683	-0.000858156
1.6835	-0.000831248
1.684	-0.000621046
1.6845	-0.000451477
1.685	-0.000392907
1.6855	-0.000333485
1.686	-0.000160048
1.6865	0.000111264
1.687	0.000369045
1.6875	0.000521124
1.688	0.000575631
1.6885	0.000621523
1.689	0.000713962
1.6895	0.000789581
1.69	0.000748455
1.6905	0.00062242
1.691	0.000577374
1.6915	0.000699078
1.692	0.000853118
1.6925	0.000848036
1.693	0.000693193
1.6935	0.00057991
1.694	0.000608007
1.6945	0.000651907
1.695	0.000544593
1.6955	0.000294416
1.696	4.23E-05
1.6965	-0.000130973
1.697	-0.000274193
1.6975	-0.000478243
1.698	-0.00077747
1.6985	-0.001105479
1.699	-0.001309646
1.6995	-0.001258533
1.7	-0.000980738
1.7005	-0.000658592
1.701	-0.000460908
1.7015	-0.000429352
1.702	-0.000516754
1.7025	-0.000628241
1.703	-0.000613128
1.7035	-0.00036357
1.704	1.10E-05
1.7045	0.000232854
1.705	0.000162685
1.7055	-4.23E-05
1.706	-0.000138904
1.7065	-5.60E-05
1.707	0.000117688
1.7075	0.000274017
1.708	0.000326136
1.7085	0.000225858
1.709	3.82E-05
1.7095	-8.97E-05
1.71	-0.000116858
1.7105	-0.00018765
1.711	-0.000453196
1.7115	-0.000872719
1.712	-0.001239205
1.7125	-0.001347173
1.713	-0.001115854
1.7135	-0.000617574
1.714	-2.14E-05
1.7145	0.000516394
1.715	0.000901577
1.7155	0.001047106
1.716	0.000868521
1.7165	0.000415234
1.717	-7.56E-05
1.7175	-0.000373101
1.718	-0.000463845
1.7185	-0.000479302
1.719	-0.000469311
1.7195	-0.000368097
1.72	-0.000164009
1.7205	2.30E-05
1.721	7.14E-05
1.7215	2.41E-06
1.722	-4.33E-05
1.7225	2.82E-05
1.723	0.000116013
1.7235	-3.42E-05
1.724	-0.000557402
1.7245	-0.001221517
1.725	-0.001564121
1.7255	-0.001361733
1.726	-0.00088061
1.7265	-0.000560413
1.727	-0.000523742
1.7275	-0.000529396
1.728	-0.000350512
1.7285	-1.79E-05
1.729	0.000319403
1.7295	0.000592227
1.73	0.000795582
1.7305	0.000914445
1.731	0.000976602
1.7315	0.001090019
1.732	0.001308047
1.7325	0.001495566
1.733	0.001429051
1.7335	0.001026676
1.734	0.000427723
1.7345	-0.000127737
1.735	-0.000440271
1.7355	-0.000411578
1.736	-7.02E-05
1.7365	0.000416703
1.737	0.000804118
1.7375	0.000917861
1.738	0.000783657
1.7385	0.000597685
1.739	0.00053656
1.7395	0.000595102
1.74	0.000633613
1.7405	0.000566823
1.741	0.000452696
1.7415	0.000387115
1.742	0.000359964
1.7425	0.000249876
1.743	-3.52E-05
1.7435	-0.000408333
1.744	-0.000614964
1.7445	-0.000455221
1.745	-1.18E-05
1.7455	0.000410709
1.746	0.000600492
1.7465	0.000616655
1.747	0.000620661
1.7475	0.000636358
1.748	0.000560504
1.7485	0.000337417
1.749	2.92E-05
1.7495	-0.000254832
1.75	-0.000440553
1.7505	-0.000537338
1.751	-0.000634642
1.7515	-0.000800244
1.752	-0.00096597
1.7525	-0.000989128
1.753	-0.000844832
1.7535	-0.000666002
1.754	-0.000561855
1.7545	-0.000488282
1.755	-0.000342162
1.7555	-0.000111674
1.756	0.000106368
1.7565	0.000188963
1.757	7.57E-05
1.7575	-0.000169211
1.758	-0.0003773
1.7585	-0.00040516
1.759	-0.000247945
1.7595	-1.23E-05
1.76	0.00017926
1.7605	0.000239391
1.761	0.000157018
1.7615	4.59E-05
1.762	6.93E-05
1.7625	0.000240941
1.763	0.000371355
1.7635	0.000284457
1.764	1.38E-05
1.7645	-0.000283266
1.765	-0.000505301
1.7655	-0.000598435
1.766	-0.000466431
1.7665	-5.77E-05
1.767	0.000464185
1.7675	0.000771553
1.768	0.000657943
1.7685	0.000243358
1.769	-0.000126226
1.7695	-0.000189649
1.77	-1.53E-06
1.7705	0.000140218
1.771	2.68E-06
1.7715	-0.000371671
1.772	-0.000769019
1.7725	-0.001033408
1.773	-0.001122037
1.7735	-0.001023194
1.774	-0.000762889
1.7745	-0.000470312
1.775	-0.000302445
1.7755	-0.000287714
1.776	-0.000330843
1.7765	-0.000352131
1.777	-0.000316066
1.7775	-0.000155731
1.778	0.000172537
1.7785	0.000536712
1.779	0.000677944
1.7795	0.000466509
1.78	3.94E-07
1.7805	-0.000571582
1.781	-0.001165598
1.7815	-0.001642144
1.782	-0.00176444
1.7825	-0.001441128
1.783	-0.000889346
1.7835	-0.00037667
1.784	0.000116102
1.7845	0.000773026
1.785	0.001520572
1.7855	0.00195663
1.786	0.00177797
1.7865	0.001140742
1.787	0.000508228
1.7875	0.000209609
1.788	0.000205601
1.7885	0.000241837
1.789	0.000177928
1.7895	0.000151653
1.79	0.000399748
1.7905	0.000918409
1.791	0.001380579
1.7915	0.001466196
1.792	0.001229906
1.7925	0.001034748
1.793	0.001110649
1.7935	0.001275032
1.794	0.001149416
1.7945	0.000590345
1.795	-0.000181354
1.7955	-0.000844778
1.796	-0.001240393
1.7965	-0.001337564
1.797	-0.001096735
1.7975	-0.000509873
1.798	0.000278279
1.7985	0.001022401
1.799	0.001536775
1.7995	0.001726373
1.8	0.001541396
1.8005	0.00106376
1.801	0.000607167
1.8015	0.000528132
1.802	0.000859634
1.8025	0.001249454
1.803	0.001331555
1.8035	0.00107027
1.804	0.00068195
1.8045	0.000326966
1.805	-2.39E-06
1.8055	-0.000342268
1.806	-0.000647025
1.8065	-0.000851335
1.807	-0.00096051
1.8075	-0.001029033
1.808	-0.001083202
1.8085	-0.0010995
1.809	-0.001046673
1.8095	-0.000933525
1.81	-0.000820627
1.8105	-0.000778236
1.811	-0.00081
1.8115	-0.000820122
1.812	-0.000690158
1.8125	-0.000413826
1.813	-0.00014269
1.8135	-6.28E-05
1.814	-0.000215565
1.8145	-0.000476808
1.815	-0.00073061
1.8155	-0.001001689
1.816	-0.00135258
1.8165	-0.001722831
1.817	-0.001993389
1.8175	-0.002165
1.818	-0.002311404
1.8185	-0.002371998
1.819	-0.002190317
1.8195	-0.00179293
1.82	-0.001416922
1.8205	-0.001168987
1.821	-0.000858412
1.8215	-0.000311301
1.822	0.00031514
1.8225	0.000714222
1.823	0.000827926
1.8235	0.000887311
1.824	0.001087385
1.8245	0.001353059
1.825	0.001438606
1.8255	0.001202132
1.826	0.000780461
1.8265	0.000494253
1.827	0.00054853
1.8275	0.000848278
1.828	0.001152631
1.8285	0.001338776
1.829	0.001413341
1.8295	0.001353087
1.83	0.001118113
1.8305	0.000800664
1.831	0.000581797
1.8315	0.000526417
1.832	0.000561766
1.8325	0.000643384
1.833	0.000779073
1.8335	0.000896615
1.834	0.000867589
1.8345	0.000687355
1.835	0.000484254
1.8355	0.000341962
1.836	0.000253257
1.8365	0.000230918
1.837	0.000289235
1.8375	0.000312725
1.838	0.000125676
1.8385	-0.00027273
1.839	-0.000691632
1.8395	-0.000985531
1.84	-0.001157937
1.8405	-0.001219874
1.841	-0.001132212
1.8415	-0.000953101
1.842	-0.000874786
1.8425	-0.000998511
1.843	-0.001168923
1.8435	-0.001127745
1.844	-0.000772585
1.8445	-0.000212561
1.845	0.000345248
1.8455	0.000699399
1.846	0.00073915
1.8465	0.000525717
1.847	0.000238041
1.8475	-2.90E-05
1.848	-0.000340287
1.8485	-0.000722236
1.849	-0.000985678
1.8495	-0.000878489
1.85	-0.000372048
1.8505	0.000317278
1.851	0.000955504
1.8515	0.001418982
1.852	0.001618234
1.8525	0.00145494
1.853	0.00094833
1.8535	0.000350344
1.854	2.92E-05
1.8545	0.000170828
1.855	0.000588327
1.8555	0.00087172
1.856	0.000762435
1.8565	0.00036496
1.857	-2.09E-05
1.8575	-0.000209689
1.858	-0.000215406
1.8585	-0.000107283
1.859	8.47E-05
1.8595	0.000312909
1.86	0.000465756
1.8605	0.000421993
1.861	0.000121214
1.8615	-0.00038439
1.862	-0.000870928
1.8625	-0.000994936
1.863	-0.000574334
1.8635	0.000156504
1.864	0.000729556
1.8645	0.000938735
1.865	0.001001671
1.8655	0.001158835
1.866	0.001307885
1.8665	0.001200987
1.867	0.000850114
1.8675	0.000501958
1.868	0.00027319
1.8685	4.91E-05
1.869	-0.000238422
1.8695	-0.000450191
1.87	-0.000460157
1.8705	-0.000393703
1.871	-0.00049198
1.8715	-0.000774572
1.872	-0.000977215
1.8725	-0.000871233
1.873	-0.000549552
1.8735	-0.000300343
1.874	-0.00024307
1.8745	-0.000216465
1.875	-3.99E-05
1.8755	0.000243889
1.876	0.000448785
1.8765	0.000450599
1.877	0.000218538
1.8775	-0.000242618
1.878	-0.000822211
1.8785	-0.001242256
1.879	-0.001264436
1.8795	-0.000967917
1.88	-0.000647489
1.8805	-0.000418654
1.881	-0.000135195
1.8815	0.000229724
1.882	0.000373044
1.8825	4.29E-05
1.883	-0.000529863
1.8835	-0.000846467
1.884	-0.000739421
1.8845	-0.00051265
1.885	-0.000477244
1.8855	-0.000592092
1.886	-0.000661052
1.8865	-0.000682308
1.887	-0.00080922
1.8875	-0.00104319
1.888	-0.001167482
1.8885	-0.001030297
1.889	-0.000757576
1.8895	-0.000585077
1.89	-0.000555732
1.8905	-0.000512449
1.891	-0.000365568
1.8915	-0.000216889
1.892	-0.000176075
1.8925	-0.000178718
1.893	-6.71E-05
1.8935	0.000222697
1.894	0.000619021
1.8945	0.000993261
1.895	0.001213393
1.8955	0.001164876
1.896	0.000802547
1.8965	0.00021334
1.897	-0.000381729
1.8975	-0.000729544
1.898	-0.000723262
1.8985	-0.00050942
1.899	-0.000354222
1.8995	-0.000349911
1.9	-0.000305886
1.9005	5.55E-06
1.901	0.000545097
1.9015	0.001037184
1.902	0.001286252
1.9025	0.00136396
1.903	0.001455098
1.9035	0.001597904
1.904	0.001643379
1.9045	0.001443721
1.905	0.001027541
1.9055	0.000595695
1.906	0.000372116
1.9065	0.000425781
1.907	0.000584928
1.9075	0.000558815
1.908	0.000235492
1.9085	-0.000140288
1.909	-0.000185338
1.9095	0.000199924
1.91	0.000722728
1.9105	0.001032623
1.911	0.001032527
1.9115	0.000806466
1.912	0.000419069
1.9125	-6.31E-05
1.913	-0.000487404
1.9135	-0.00075672
1.914	-0.000988258
1.9145	-0.001328612
1.915	-0.001629132
1.9155	-0.001520943
1.916	-0.000885654
1.9165	-0.000103422
1.917	0.000284915
1.9175	0.000114169
1.918	-0.000280168
1.9185	-0.00043795
1.919	-0.000191837
1.9195	0.000290643
1.92	0.000768258
1.9205	0.00111465
1.921	0.00127436
1.9215	0.001192977
1.922	0.000899428
1.9225	0.000582597
1.923	0.000448802
1.9235	0.00049942
1.924	0.000551336
1.9245	0.000488654
1.925	0.000380377
1.9255	0.000303339
1.926	0.000176155
1.9265	-0.000105555
1.927	-0.000439173
1.9275	-0.000584435
1.928	-0.000472329
1.9285	-0.000297047
1.929	-0.00023945
1.9295	-0.00022298
1.93	-5.08E-05
1.9305	0.000292816
1.931	0.000605303
1.9315	0.000697379
1.932	0.000528406
1.9325	0.000105252
1.933	-0.000588585
1.9335	-0.001453546
1.934	-0.002182427
1.9345	-0.002498622
1.935	-0.002470902
1.9355	-0.002407248
1.936	-0.002407124
1.9365	-0.002219116
1.937	-0.001626611
1.9375	-0.000769468
1.938	5.69E-05
1.9385	0.000718948
1.939	0.001157732
1.9395	0.001177837
1.94	0.000640977
1.9405	-0.000176639
1.941	-0.000713955
1.9415	-0.000670518
1.942	-0.000245815
1.9425	0.000176804
1.943	0.000393649
1.9435	0.000400975
1.944	0.000267073
1.9445	0.000103874
1.945	4.52E-05
1.9455	0.000145555
1.946	0.000358866
1.9465	0.00065485
1.947	0.001056188
1.9475	0.001510334
1.948	0.001841579
1.9485	0.00192071
1.949	0.00180104
1.9495	0.001605535
1.95	0.001358482
1.9505	0.001020032
1.951	0.000620152
1.9515	0.0002505
1.952	-5.25E-05
1.9525	-0.000336683
1.953	-0.000654856
1.9535	-0.001000997
1.954	-0.001292623
1.9545	-0.001374752
1.955	-0.001093579
1.9555	-0.000450917
1.956	0.000322453
1.9565	0.000921111
1.957	0.001209881
1.9575	0.001264912
1.958	0.001171162
1.9585	0.000883267
1.959	0.000370671
1.9595	-0.000180365
1.96	-0.00047367
1.9605	-0.000429876
1.961	-0.000264858
1.9615	-0.000199094
1.962	-0.000242099
1.9625	-0.000343468
1.963	-0.00057753
1.9635	-0.001009503
1.964	-0.001497031
1.9645	-0.001810565
1.965	-0.001881035
1.9655	-0.001770334
1.966	-0.001488181
1.9665	-0.00103947
1.967	-0.000593653
1.9675	-0.000376966
1.968	-0.000385998
1.9685	-0.000398688
1.969	-0.000285735
1.9695	-0.000118212
1.97	6.44E-05
1.9705	0.000357942
1.971	0.000740705
1.9715	0.000926655
1.972	0.000690653
1.9725	0.000226707
1.973	-5.54E-05
1.9735	-3.17E-05
1.974	9.25E-05
1.9745	0.000217915
1.975	0.000509339
1.9755	0.001018668
1.976	0.001449656
1.9765	0.001516177
1.977	0.001340544
1.9775	0.001257535
1.978	0.00133582
1.9785	0.001318181
1.979	0.000980493
1.9795	0.000356545
1.98	-0.00036426
1.9805	-0.000982703
1.981	-0.001324377
1.9815	-0.00128515
1.982	-0.000910042
1.9825	-0.000371416
1.983	0.000149287
1.9835	0.000532584
1.984	0.000722552
1.9845	0.000740489
1.985	0.00068175
1.9855	0.000625056
1.986	0.000549899
1.9865	0.000396924
1.987	0.000176817
1.9875	-6.39E-05
1.988	-0.000359825
1.9885	-0.000791556
1.989	-0.001310094
1.9895	-0.001704563
1.99	-0.001816378
1.9905	-0.001723689
1.991	-0.001641058
1.9915	-0.00167265
1.992	-0.001740298
1.9925	-0.001744408
1.993	-0.001706468
1.9935	-0.001694969
1.994	-0.001647816
1.9945	-0.001358647
1.995	-0.000691245
1.9955	0.000223012
1.996	0.001056613
1.9965	0.001555193
1.997	0.001705978
1.9975	0.001661551
1.998	0.001560539
1.9985	0.001436813
1.999	0.001259443
1.9995	0.001032694
2	0.000854328
2.0005	0.000850768
2.001	0.001037279
2.0015	0.001263049
2.002	0.001341799
2.0025	0.001199883
2.003	0.00088798
2.0035	0.000518483
2.004	0.000242938
2.0045	0.000202961
2.005	0.000391149
2.0055	0.000604777
2.006	0.000656081
2.0065	0.000601982
2.007	0.000634086
2.0075	0.000759651
2.008	0.00077125
2.0085	0.000576438
2.009	0.000364801
2.0095	0.000325519
2.01	0.000353194
2.0105	0.000200802
2.011	-0.000174513
2.0115	-0.000581951
2.012	-0.000831347
2.0125	-0.000827204
2.013	-0.000503694
2.0135	0.00011693
2.014	0.000783458
2.0145	0.001099741
2.015	0.000831293
2.0155	0.000106031
2.016	-0.000670575
2.0165	-0.001094573
2.017	-0.001063098
2.0175	-0.00086309
2.018	-0.000872752
2.0185	-0.001116101
2.019	-0.001222438
2.0195	-0.00089927
2.02	-0.000323979
2.0205	4.30E-05
2.021	-5.00E-05
2.0215	-0.000442085
2.022	-0.000776565
2.0225	-0.000810874
2.023	-0.000548292
2.0235	-0.000174739
2.024	0.000100019
2.0245	0.000176675
2.025	8.02E-05
2.0255	-0.000120693
2.026	-0.000363433
2.0265	-0.000574439
2.027	-0.000681275
2.0275	-0.000686814
2.028	-0.000684493
2.0285	-0.00074391
2.029	-0.000802356
2.0295	-0.000722788
2.03	-0.000454477
2.0305	-8.88E-05
2.031	0.000247087
2.0315	0.000499125
2.032	0.000668529
2.0325	0.000745113
2.033	0.000722271
2.0335	0.000655259
2.034	0.00063413
2.0345	0.000689115
2.035	0.000763073
2.0355	0.000763502
2.036	0.000593894
2.0365	0.000183242
2.037	-0.000398339
2.0375	-0.000859589
2.038	-0.000865871
2.0385	-0.000367512
2.039	0.000311062
2.0395	0.000738868
2.04	0.000696713
2.0405	0.000282477
2.041	-0.00017068
2.0415	-0.000296765
2.042	1.09E-05
2.0425	0.000443609
2.043	0.000530825
2.0435	0.0001225
2.044	-0.000464811
2.0445	-0.000827498
2.045	-0.000886101
2.0455	-0.000837937
2.046	-0.00082608
2.0465	-0.000819854
2.047	-0.000771729
2.0475	-0.00069636
2.048	-0.000550243
2.0485	-0.000199298
2.049	0.000378967
2.0495	0.000954616
2.05	0.001232728
2.0505	0.001152034
2.051	0.000909202
2.0515	0.0007173
2.052	0.000632125
2.0525	0.000597346
2.053	0.000548896
2.0535	0.000440299
2.054	0.000242999
2.0545	-1.77E-05
2.055	-0.000248513
2.0555	-0.000340126
2.056	-0.000223561
2.0565	0.000113712
2.057	0.000600397
2.0575	0.001030785
2.058	0.001118501
2.0585	0.0007235
2.059	4.15E-05
2.0595	-0.000527456
2.06	-0.000745192
2.0605	-0.000711111
2.061	-0.000644693
2.0615	-0.000584997
2.062	-0.000385801
2.0625	4.04E-05
2.063	0.000556707
2.0635	0.000875847
2.064	0.000768501
2.0645	0.000227153
2.065	-0.000535182
2.0655	-0.001243341
2.066	-0.00171421
2.0665	-0.001870445
2.067	-0.001696173
2.0675	-0.001267243
2.068	-0.000768163
2.0685	-0.000359294
2.069	-3.45E-05
2.0695	0.000304704
2.07	0.00066032
2.0705	0.000918228
2.071	0.000996838
2.0715	0.000921059
2.072	0.000761944
2.0725	0.0005946
2.073	0.000516324
2.0735	0.00062029
2.074	0.000903782
2.0745	0.001205023
2.075	0.001252948
2.0755	0.00086465
2.076	0.000189532
2.0765	-0.00030622
2.077	-0.000271511
2.0775	0.000112625
2.078	0.000323552
2.0785	0.000113042
2.079	-0.000276097
2.0795	-0.00052998
2.08	-0.000619747
2.0805	-0.000622773
2.081	-0.000469733
2.0815	-9.42E-05
2.082	0.00034536
2.0825	0.00061489
2.083	0.000662028
2.0835	0.000558997
2.084	0.000324013
2.0845	-2.14E-05
2.085	-0.000341777
2.0855	-0.000523165
2.086	-0.000621307
2.0865	-0.000715106
2.087	-0.000730888
2.0875	-0.000596562
2.088	-0.000463721
2.0885	-0.000569925
2.089	-0.000936647
2.0895	-0.001371979
2.09	-0.001710353
2.0905	-0.001886024
2.091	-0.00183217
2.0915	-0.001490831
2.092	-0.000913865
2.0925	-0.000224989
2.093	0.00049282
2.0935	0.001158588
2.094	0.001596144
2.0945	0.00163476
2.095	0.00131284
2.0955	0.000857397
2.096	0.000445238
2.0965	8.77E-05
2.097	-0.000237343
2.0975	-0.00045528
2.098	-0.0004532
2.0985	-0.000200824
2.099	0.000224955
2.0995	0.00068681
2.1	0.001041414
2.1005	0.001211759
2.101	0.001238636
2.1015	0.001222294
2.102	0.001204187
2.1025	0.001142073
2.103	0.000977982
2.1035	0.000670785
2.104	0.000209396
2.1045	-0.000298049
2.105	-0.000591703
2.1055	-0.000482906
2.106	-0.000128202
2.1065	7.46E-05
2.107	-8.97E-05
2.1075	-0.000460338
2.108	-0.0007562
2.1085	-0.000864894
2.109	-0.000829565
2.1095	-0.00071123
2.11	-0.000554646
2.1105	-0.000374252
2.111	-0.000111266
2.1115	0.000278969
2.112	0.000657037
2.1125	0.000769259
2.113	0.000561728
2.1135	0.000283278
2.114	0.000181271
2.1145	0.000210828
2.115	0.000134658
2.1155	-0.000199678
2.116	-0.000767217
2.1165	-0.001422029
2.117	-0.00192985
2.1175	-0.002062957
2.118	-0.001813157
2.1185	-0.001433617
2.119	-0.001133066
2.1195	-0.000810248
2.12	-0.000241308
2.1205	0.000548189
2.121	0.001264136
2.1215	0.001631756
2.122	0.001547416
2.1225	0.001041471
2.123	0.000308892
2.1235	-0.000269881
2.124	-0.000370297
2.1245	-1.86E-05
2.125	0.000490842
2.1255	0.000949025
2.126	0.00135793
2.1265	0.001738291
2.127	0.001996186
2.1275	0.002014635
2.128	0.001758131
2.1285	0.001261418
2.129	0.000609852
2.1295	-4.31E-05
2.13	-0.000511928
2.1305	-0.000679744
2.131	-0.000565902
2.1315	-0.000309794
2.132	-8.01E-05
2.1325	5.51E-05
2.133	0.00018072
2.1335	0.000404838
2.134	0.000672042
2.1345	0.000784061
2.135	0.000614437
2.1355	0.000215614
2.136	-0.000292427
2.1365	-0.000819334
2.137	-0.001258024
2.1375	-0.001481317
2.138	-0.00147346
2.1385	-0.001368316
2.139	-0.00127176
2.1395	-0.001135189
2.14	-0.000905478
2.1405	-0.000729232
2.141	-0.000873422
2.1415	-0.001424192
2.142	-0.002131463
2.1425	-0.002591057
2.143	-0.002579535
2.1435	-0.002198057
2.144	-0.001680572
2.1445	-0.001105232
2.145	-0.000381277
2.1455	0.000485773
2.146	0.001262321
2.1465	0.001712644
2.147	0.001864556
2.1475	0.001946341
2.148	0.002116792
2.1485	0.002336315
2.149	0.002436629
2.1495	0.002242375
2.15	0.001714232
2.1505	0.001075279
2.151	0.000708459
2.1515	0.000790923
2.152	0.00107558
2.1525	0.00116243
2.153	0.000952646
2.1535	0.000704735
2.154	0.00066492
2.1545	0.000794522
2.155	0.000890082
2.1555	0.000833947
2.156	0.000647489
2.1565	0.000385073
2.157	7.82E-05
2.1575	-0.000230491
2.158	-0.000471834
2.1585	-0.000600699
2.159	-0.000646053
2.1595	-0.000685631
2.16	-0.000764004
2.1605	-0.000848384
2.161	-0.000863836
2.1615	-0.000741168
2.162	-0.000431803
2.1625	4.85E-05
2.163	0.000528659
2.1635	0.00068362
2.164	0.000231311
2.1645	-0.000806008
2.165	-0.002022642
2.1655	-0.002846685
2.166	-0.002948205
2.1665	-0.00253471
2.167	-0.002198853
2.1675	-0.002351328
2.168	-0.002800155
2.1685	-0.00297889
2.169	-0.002566002
2.1695	-0.001759072
2.17	-0.000953923
2.1705	-0.000318166
2.171	0.000256571
2.1715	0.000905196
2.172	0.001597405
2.1725	0.002155391
2.173	0.002403063
2.1735	0.002317718
2.174	0.002063811
2.1745	0.001858387
2.175	0.001784193
2.1755	0.00174182
2.176	0.001576699
2.1765	0.001228549
2.177	0.000768988
2.1775	0.000340777
2.178	7.61E-05
2.1785	3.30E-05
2.179	0.000166884
2.1795	0.000360857
2.18	0.000504091
2.1805	0.00054755
2.181	0.000489338
2.1815	0.000334357
2.182	0.000101499
2.1825	-0.000134016
2.183	-0.000244626
2.1835	-0.000128548
2.184	0.000206492
2.1845	0.000631809
2.185	0.000962726
2.1855	0.00104177
2.186	0.00078744
2.1865	0.000210208
2.187	-0.000574345
2.1875	-0.001353015
2.188	-0.001901323
2.1885	-0.002121599
2.189	-0.002089343
2.1895	-0.001936043
2.19	-0.001701947
2.1905	-0.001327878
2.191	-0.000769389
2.1915	-9.50E-05
2.192	0.000501284
2.1925	0.000767531
2.193	0.000538482
2.1935	-0.000107909
2.194	-0.00084191
2.1945	-0.001299663
2.195	-0.001357122
2.1955	-0.001192788
2.196	-0.00107927
2.1965	-0.001116473
2.197	-0.001154461
2.1975	-0.00095138
2.198	-0.000408769
2.1985	0.000312186
2.199	0.000890558
2.1995	0.001098549
2.2	0.000990636
2.2005	0.000821648
2.201	0.000764343
2.2015	0.000769185
2.202	0.000745034
2.2025	0.000780105
2.203	0.001043204
2.2035	0.001481378
2.204	0.001765755
2.2045	0.001616331
2.205	0.001121507
2.2055	0.000668932
2.206	0.00056833
2.2065	0.00076941
2.207	0.000943831
2.2075	0.00082318
2.208	0.00044674
2.2085	8.38E-05
2.209	-5.47E-05
2.2095	1.84E-05
2.21	0.000186655
2.2105	0.00042975
2.211	0.000807271
2.2115	0.001253141
2.212	0.001509642
2.2125	0.001360761
2.213	0.000887422
2.2135	0.000398365
2.214	0.000119319
2.2145	3.23E-05
2.215	1.17E-05
2.2155	6.29E-06
2.216	3.55E-05
2.2165	8.00E-05
2.217	6.26E-05
2.2175	-5.53E-05
2.218	-0.000198641
2.2185	-0.000238696
2.219	-0.000149087
2.2195	-6.99E-05
2.22	-0.000158786
2.2205	-0.000385605
2.221	-0.000554595
2.2215	-0.000541699
2.222	-0.000413707
2.2225	-0.000280008
2.223	-0.000140445
2.2235	5.27E-05
2.224	0.00029273
2.2245	0.000569739
2.225	0.000916298
2.2255	0.001285848
2.226	0.001478797
2.2265	0.001324169
2.227	0.000859872
2.2275	0.000201483
2.228	-0.000665651
2.2285	-0.001759785
2.229	-0.002816968
2.2295	-0.003380805
2.23	-0.00325749
2.2305	-0.002733183
2.231	-0.002261664
2.2315	-0.002031698
2.232	-0.001886673
2.2325	-0.001568787
2.233	-0.000980498
2.2335	-0.00027323
2.234	0.000273402
2.2345	0.00050197
2.235	0.000522011
2.2355	0.000562268
2.236	0.000696865
2.2365	0.000794271
2.237	0.000722039
2.2375	0.000495867
2.238	0.000204986
2.2385	-0.000113313
2.239	-0.000475018
2.2395	-0.000882827
2.24	-0.001299251
2.2405	-0.001655386
2.241	-0.001865004
2.2415	-0.001847757
2.242	-0.00154816
2.2425	-0.000947631
2.243	-0.000114336
2.2435	0.000733669
2.244	0.001289752
2.2445	0.00137282
2.245	0.001082126
2.2455	0.000704262
2.246	0.00047888
2.2465	0.000470214
2.247	0.000618271
2.2475	0.000848276
2.248	0.001114262
2.2485	0.001358292
2.249	0.001464471
2.2495	0.001311916
2.25	0.000912619
2.2505	0.000458551
2.251	0.000165148
2.2515	6.98E-05
2.252	2.91E-05
2.2525	-9.58E-05
2.253	-0.000299669
2.2535	-0.000467558
2.254	-0.000495706
2.2545	-0.000371685
2.255	-0.000166815
2.2555	3.78E-05
2.256	0.000216052
2.2565	0.000380163
2.257	0.000524502
2.2575	0.000624953
2.258	0.000665695
2.2585	0.000600196
2.259	0.000318028
2.2595	-0.000243723
2.26	-0.0009535
2.2605	-0.001544167
2.261	-0.001824325
2.2615	-0.001762994
2.262	-0.001420489
2.2625	-0.000924293
2.263	-0.000464173
2.2635	-0.000146656
2.264	0.000120179
2.2645	0.000439544
2.265	0.000678807
2.2655	0.000621946
2.266	0.000349663
2.2665	0.000232066
2.267	0.000487424
2.2675	0.000911279
2.268	0.00108842
2.2685	0.000764953
2.269	2.78E-05
2.2695	-0.000745836
2.27	-0.001118337
2.2705	-0.000904403
2.271	-0.000293715
2.2715	0.000368155
2.272	0.000874334
2.2725	0.001200093
2.273	0.001368945
2.2735	0.001389864
2.274	0.001276292
2.2745	0.001050956
2.275	0.000773011
2.2755	0.000576141
2.276	0.000573526
2.2765	0.000689924
2.277	0.000712161
2.2775	0.000552587
2.278	0.000333246
2.2785	0.000171546
2.279	4.50E-05
2.2795	-7.17E-05
2.28	-0.00011328
2.2805	-6.33E-05
2.281	-2.81E-05
2.2815	-8.11E-05
2.282	-0.000184636
2.2825	-0.00033475
2.283	-0.000593966
2.2835	-0.000887394
2.284	-0.000991199
2.2845	-0.000871404
2.285	-0.000816324
2.2855	-0.001028684
2.286	-0.00126868
2.2865	-0.001151176
2.287	-0.000678749
2.2875	-0.000215518
2.288	1.81E-05
2.2885	0.000163177
2.289	0.000406975
2.2895	0.00066965
2.29	0.000710679
2.2905	0.00041871
2.291	-0.000115486
2.2915	-0.000741011
2.292	-0.001331911
2.2925	-0.001731401
2.293	-0.001742575
2.2935	-0.00128251
2.294	-0.000519945
2.2945	0.000229374
2.295	0.00075563
2.2955	0.001057119
2.296	0.001230665
2.2965	0.001368227
2.297	0.001549093
2.2975	0.00179036
2.298	0.001961588
2.2985	0.001876673
2.299	0.00153586
2.2995	0.001160159
2.3	0.000910276
2.3005	0.000696264
2.301	0.000379172
2.3015	4.91E-05
2.302	-6.33E-05
2.3025	9.21E-05
2.303	0.000305654
2.3035	0.000354556
2.304	0.000208108
2.3045	-2.48E-05
2.305	-0.000249273
2.3055	-0.000446507
2.306	-0.000638284
2.3065	-0.000820864
2.307	-0.000935874
2.3075	-0.000937893
2.308	-0.00088624
2.3085	-0.000878424
2.309	-0.000858962
2.3095	-0.000617372
2.31	-7.41E-05
2.3105	0.000525888
2.311	0.000827782
2.3115	0.000728268
2.312	0.000421577
2.3125	0.000130116
2.313	-0.000110591
2.3135	-0.000416466
2.314	-0.000878225
2.3145	-0.001413295
2.315	-0.001766225
2.3155	-0.001699854
2.316	-0.001223099
2.3165	-0.000593234
2.317	-7.88E-05
2.3175	0.000225903
2.318	0.00035554
2.3185	0.000359057
2.319	0.000293681
2.3195	0.000257249
2.32	0.000341143
2.3205	0.00056291
2.321	0.000860778
2.3215	0.001106684
2.322	0.001125906
2.3225	0.000808999
2.323	0.00025894
2.3235	-0.000256325
2.324	-0.000557239
2.3245	-0.000685467
2.325	-0.00074395
2.3255	-0.00071603
2.326	-0.0005222
2.3265	-0.000159564
2.327	0.000291817
2.3275	0.000699154
2.328	0.000852615
2.3285	0.000569595
2.329	-5.67E-05
2.3295	-0.00065755
2.33	-0.000971891
2.3305	-0.00109049
2.331	-0.001188399
2.3315	-0.001208211
2.332	-0.001022386
2.3325	-0.000759159
2.333	-0.000710917
2.3335	-0.000978851
2.334	-0.001393745
2.3345	-0.00171716
2.335	-0.001771705
2.3355	-0.001492442
2.336	-0.001038263
2.3365	-0.00076262
2.337	-0.000897413
2.3375	-0.00132139
2.338	-0.001736297
2.3385	-0.001942846
2.339	-0.00184104
2.3395	-0.001347307
2.34	-0.000491876
2.3405	0.000532371
2.341	0.001565094
2.3415	0.002579337
2.342	0.003453703
2.3425	0.003838837
2.343	0.003477207
2.3435	0.002554558
2.344	0.001545416
2.3445	0.00078631
2.345	0.000344713
2.3455	0.000182813
2.346	0.000228934
2.3465	0.000327808
2.347	0.000320952
2.3475	0.000201299
2.348	7.24E-05
2.3485	-2.93E-05
2.349	-0.000149811
2.3495	-0.000275751
2.35	-0.000306843
2.3505	-0.000170107
2.351	0.000148681
2.3515	0.000664315
2.352	0.001347842
2.3525	0.002031344
2.353	0.002492712
2.3535	0.002629217
2.354	0.002420888
2.3545	0.001782351
2.355	0.000679453
2.3555	-0.000586462
2.356	-0.001448347
2.3565	-0.001541618
2.357	-0.000984624
2.3575	-0.000176663
2.358	0.000499631
2.3585	0.000748831
2.359	0.000405961
2.3595	-0.00039346
2.36	-0.001196858
2.3605	-0.001546248
2.361	-0.001284457
2.3615	-0.000528769
2.362	0.000510508
2.3625	0.001562332
2.363	0.002268779
2.3635	0.002345989
2.364	0.001823597
2.3645	0.001030187
2.365	0.000298237
2.3655	-0.000272693
2.366	-0.000757185
2.3665	-0.001191844
2.367	-0.001493358
2.3675	-0.001573467
2.368	-0.001462146
2.3685	-0.00126432
2.369	-0.001023949
2.3695	-0.000709927
2.37	-0.000341927
2.3705	-2.45E-05
2.371	0.000202701
2.3715	0.000448222
2.372	0.000808282
2.3725	0.00120528
2.373	0.00147968
2.3735	0.001539825
2.374	0.001313032
2.3745	0.000705956
2.375	-0.00018074
2.3755	-0.000922895
2.376	-0.001137854
2.3765	-0.000955174
2.377	-0.000873851
2.3775	-0.001144287
2.378	-0.001530285
2.3785	-0.001713589
2.379	-0.001685172
2.3795	-0.001636361
2.38	-0.001656034
2.3805	-0.001659677
2.381	-0.001490483
2.3815	-0.000997317
2.382	-0.000134835
2.3825	0.000905436
2.383	0.001738679
2.3835	0.002047452
2.384	0.001780562
2.3845	0.001119803
2.385	0.000358513
2.3855	-0.000209773
2.386	-0.000465715
2.3865	-0.000590246
2.387	-0.00087612
2.3875	-0.001357358
2.388	-0.001768431
2.3885	-0.001926791
2.389	-0.001982968
2.3895	-0.002178434
2.39	-0.002490767
2.3905	-0.002649475
2.391	-0.002419799
2.3915	-0.001776143
2.392	-0.00088477
2.3925	-1.34E-05
2.393	0.000620912
2.3935	0.001021702
2.394	0.001394439
2.3945	0.00188764
2.395	0.0023888
2.3955	0.002639467
2.396	0.002531963
2.3965	0.002237478
2.397	0.002022363
2.3975	0.001952197
2.398	0.001818707
2.3985	0.001397692
2.399	0.000740641
2.3995	0.000136132
2.4	-0.000180828
2.4005	-0.000178899
2.401	5.05E-05
2.4015	0.000343515
2.402	0.000443485
2.4025	0.000153422
2.403	-0.000400351
2.4035	-0.000804651
2.404	-0.00075158
2.4045	-0.000310572
2.405	0.000219557
2.4055	0.000625099
2.406	0.000920087
2.4065	0.001272304
2.407	0.001790214
2.4075	0.002286388
2.408	0.002300454
2.4085	0.001544181
2.409	0.000341076
2.4095	-0.000580946
2.41	-0.000816688
2.4105	-0.000626012
2.411	-0.000464665
2.4115	-0.000417461
2.412	-0.000315894
2.4125	-0.000205953
2.413	-0.000328754
2.4135	-0.000678395
2.414	-0.000948409
2.4145	-0.00099094
2.415	-0.001001825
2.4155	-0.001114346
2.416	-0.00111512
2.4165	-0.000782494
2.417	-0.000277349
2.4175	5.14E-05
2.418	9.51E-05
2.4185	-9.35E-06
2.419	-0.000160966
2.4195	-0.000321627
2.42	-0.000346993
2.4205	-6.57E-05
2.421	0.000457409
2.4215	0.000929425
2.422	0.001118973
2.4225	0.00100277
2.423	0.000653347
2.4235	0.000158104
2.424	-0.000332583
2.4245	-0.00063779
2.425	-0.000701175
2.4255	-0.000645081
2.426	-0.000634921
2.4265	-0.000730903
2.427	-0.000886655
2.4275	-0.001061475
2.428	-0.00129548
2.4285	-0.001622624
2.429	-0.001897541
2.4295	-0.001818879
2.43	-0.001239645
2.4305	-0.000383827
2.431	0.000382864
2.4315	0.000932964
2.432	0.001364932
2.4325	0.001683441
2.433	0.001734841
2.4335	0.001485157
2.434	0.001139714
2.4345	0.000896145
2.435	0.000734489
2.4355	0.000539023
2.436	0.000289033
2.4365	1.86E-05
2.437	-0.000298411
2.4375	-0.000667313
2.438	-0.000918463
2.4385	-0.000808634
2.439	-0.000348517
2.4395	7.76E-05
2.44	5.11E-05
2.4405	-0.000433797
2.441	-0.000979941
2.4415	-0.00126021
2.442	-0.001338587
2.4425	-0.001437302
2.443	-0.001534846
2.4435	-0.001381258
2.444	-0.000857537
2.4445	-0.000140129
2.445	0.000481545
2.4455	0.000797519
2.446	0.000705269
2.4465	0.000233699
2.447	-0.000405068
2.4475	-0.000908613
2.448	-0.001080511
2.4485	-0.000886505
2.449	-0.000371516
2.4495	0.000351141
2.45	0.001062359
2.4505	0.00154564
2.451	0.001754822
2.4515	0.001780456
2.452	0.001674505
2.4525	0.001424515
2.453	0.00108312
2.4535	0.000796871
2.454	0.000685551
2.4545	0.000764216
2.455	0.000978789
2.4555	0.001253265
2.456	0.001499529
2.4565	0.001613827
2.457	0.001475958
2.4575	0.001011375
2.458	0.000343846
2.4585	-0.000164828
2.459	-0.000203076
2.4595	0.000123159
2.46	0.000353566
2.4605	0.000150146
2.461	-0.000417132
2.4615	-0.001074256
2.462	-0.001627239
2.4625	-0.00194528
2.463	-0.001869056
2.4635	-0.001355611
2.464	-0.000644495
2.4645	-8.86E-05
2.465	0.000183005
2.4655	0.000310208
2.466	0.000434269
2.4665	0.000543805
2.467	0.000620714
2.4675	0.000771487
2.468	0.001073031
2.4685	0.001355846
2.469	0.001308233
2.4695	0.000846874
2.47	0.00027908
2.4705	-4.71E-06
2.471	4.04E-05
2.4715	0.0001055
2.472	-6.20E-05
2.4725	-0.000405499
2.473	-0.000790637
2.4735	-0.001284294
2.474	-0.001955135
2.4745	-0.002485886
2.475	-0.002338792
2.4755	-0.001443256
2.476	-0.000470663
2.4765	-0.000192809
2.477	-0.000667854
2.4775	-0.001248119
2.478	-0.001310725
2.4785	-0.000777309
2.479	2.16E-05
2.4795	0.000708871
2.48	0.001016079
2.4805	0.0008305
2.481	0.000281814
2.4815	-0.000307964
2.482	-0.000684644
2.4825	-0.000823206
2.483	-0.000800121
2.4835	-0.000642944
2.484	-0.000387278
2.4845	-0.000142881
2.485	2.58E-05
2.4855	0.00020528
2.486	0.000516236
2.4865	0.00094768
2.487	0.001371615
2.4875	0.001660262
2.488	0.001735919
2.4885	0.001573351
2.489	0.001219483
2.4895	0.000787667
2.49	0.000407751
2.4905	0.000185013
2.491	0.000159108
2.4915	0.000240874
2.492	0.000239588
2.4925	5.82E-05
2.493	-0.000150942
2.4935	-0.00012649
2.494	0.000199412
2.4945	0.000621385
2.495	0.000876967
2.4955	0.000844431
2.496	0.000545075
2.4965	0.000118928
2.497	-0.000148533
2.4975	1.85E-05
2.498	0.000518723
2.4985	0.000792477
2.499	0.000359104
2.4995	-0.000612836
2.5	-0.00153356
2.5005	-0.002149431
2.501	-0.002684763
2.5015	-0.003143112
2.502	-0.002980928
2.5025	-0.001884111
2.503	-0.000516948
2.5035	7.98E-05
2.504	-0.00025938
2.5045	-0.000703792
2.505	-0.000566847
2.5055	-5.16E-05
2.506	0.000283839
2.5065	0.000340927
2.507	0.000466338
2.5075	0.000897273
2.508	0.001512159
2.5085	0.002015348
2.509	0.002171427
2.5095	0.001922436
2.51	0.001408109
2.5105	0.000851449
2.511	0.000389496
2.5115	6.26E-05
2.512	-6.67E-05
2.5125	7.19E-05
2.513	0.000402839
2.5135	0.000706667
2.514	0.000837982
2.5145	0.000845568
2.515	0.00082594
2.5155	0.000748161
2.516	0.000505837
2.5165	0.000107162
2.517	-0.000271834
2.5175	-0.000461765
2.518	-0.000491669
2.5185	-0.000536995
2.519	-0.000678038
2.5195	-0.000818535
2.52	-0.000894262
2.5205	-0.001021163
2.521	-0.001296467
2.5215	-0.001559818
2.522	-0.001548557
2.5225	-0.001252976
2.523	-0.000931036
2.5235	-0.000775239
2.524	-0.000734321
2.5245	-0.000671012
2.525	-0.000524775
2.5255	-0.00027718
2.526	0.000100457
2.5265	0.000595193
2.527	0.001119022
2.5275	0.001547842
2.528	0.001745935
2.5285	0.00160524
2.529	0.001177884
2.5295	0.000741833
2.53	0.000593619
2.5305	0.000750896
2.531	0.000948237
2.5315	0.000916667
2.532	0.000567945
2.5325	-6.05E-05
2.533	-0.000864253
2.5335	-0.001614296
2.534	-0.00198845
2.5345	-0.001810392
2.535	-0.001246617
2.5355	-0.000677153
2.536	-0.000340758
2.5365	-0.000150015
2.537	9.84E-05
2.5375	0.000359998
2.538	0.00030903
2.5385	-0.000232313
2.539	-0.000915523
2.5395	-0.001116351
2.54	-0.000611781
2.5405	0.000155588
2.541	0.000577654
2.5415	0.000512497
2.542	0.000317781
2.5425	0.000376538
2.543	0.000713403
2.5435	0.001003456
2.544	0.000861918
2.5445	0.000196298
2.545	-0.000636855
2.5455	-0.001080302
2.546	-0.000864569
2.5465	-0.000243671
2.547	0.000251838
2.5475	0.000246211
2.548	-0.000250793
2.5485	-0.000903021
2.549	-0.001306131
2.5495	-0.00129099
2.55	-0.001011869
2.5505	-0.000698996
2.551	-0.000399162
2.5515	-8.48E-05
2.552	8.85E-05
2.5525	-9.53E-05
2.553	-0.000513786
2.5535	-0.000709086
2.554	-0.000409527
2.5545	0.000159035
2.555	0.000603303
2.5555	0.0007937
2.556	0.000824824
2.5565	0.00077776
2.557	0.000746245
2.5575	0.00092078
2.558	0.001376705
2.5585	0.001870308
2.559	0.002082042
2.5595	0.001996179
2.56	0.001830483
2.5605	0.001669391
2.561	0.001401372
2.5615	0.000970423
2.562	0.000453177
2.5625	-9.31E-05
2.563	-0.000630086
2.5635	-0.00098579
2.564	-0.000934013
2.5645	-0.000486225
2.565	6.76E-05
2.5655	0.000468265
2.566	0.000706027
2.5665	0.000885989
2.567	0.000994924
2.5675	0.00086438
2.568	0.000319409
2.5685	-0.00062664
2.569	-0.001662205
2.5695	-0.002304836
2.57	-0.00225261
2.5705	-0.001624896
2.571	-0.000807002
2.5715	-9.35E-05
2.572	0.00045959
2.5725	0.000907655
2.573	0.001259438
2.5735	0.001422784
2.574	0.001234725
2.5745	0.000597701
2.575	-0.000333611
2.5755	-0.001168036
2.576	-0.001587765
2.5765	-0.001606128
2.577	-0.001446252
2.5775	-0.001251609
2.578	-0.00103788
2.5785	-0.000847004
2.579	-0.000757369
2.5795	-0.000727754
2.58	-0.000587241
2.5805	-0.000250186
2.581	0.00014302
2.5815	0.000365599
2.582	0.000345986
2.5825	0.000224547
2.583	0.000192747
2.5835	0.000320419
2.584	0.000540522
2.5845	0.00075893
2.585	0.000943743
2.5855	0.001114844
2.586	0.001271108
2.5865	0.001337789
2.587	0.001203394
2.5875	0.000846578
2.588	0.00041695
2.5885	0.000111484
2.589	-4.97E-05
2.5895	-0.000219181
2.59	-0.000438915
2.5905	-0.000498874
2.591	-0.000220848
2.5915	0.000217658
2.592	0.000441633
2.5925	0.000331137
2.593	0.000111661
2.5935	-2.68E-05
2.594	-0.000180439
2.5945	-0.000495435
2.595	-0.000859543
2.5955	-0.001007092
2.596	-0.000847775
2.5965	-0.000523972
2.597	-0.000173144
2.5975	0.000208192
2.598	0.000643241
2.5985	0.001049252
2.599	0.001306941
2.5995	0.001397819
2.6	0.001402233
2.6005	0.001364716
2.601	0.001213667
2.6015	0.000861309
2.602	0.000373868
2.6025	-3.41E-05
2.603	-0.00022408
2.6035	-0.000287402
2.604	-0.000401078
2.6045	-0.000601626
2.605	-0.00081754
2.6055	-0.00106148
2.606	-0.001417424
2.6065	-0.001841372
2.607	-0.002145972
2.6075	-0.002221477
2.608	-0.002134414
2.6085	-0.001974306
2.609	-0.001737256
2.6095	-0.001395433
2.61	-0.000950778
2.6105	-0.000395414
2.611	0.00023723
2.6115	0.000765741
2.612	0.00098389
2.6125	0.000924866
2.613	0.000797681
2.6135	0.000609254
2.614	0.000114764
2.6145	-0.000716156
2.615	-0.001447088
2.6155	-0.001620177
2.616	-0.001262463
2.6165	-0.000708669
2.617	-0.000108587
2.6175	0.000579092
2.618	0.0012409
2.6185	0.001646783
2.619	0.001829572
2.6195	0.002050919
2.62	0.002284508
2.6205	0.002069382
2.621	0.001102483
2.6215	-0.000233563
2.622	-0.001186103
2.6225	-0.001382235
2.623	-0.001067854
2.6235	-0.000682906
2.624	-0.000426575
2.6245	-0.000245572
2.625	-5.61E-05
2.6255	0.000112905
2.626	0.000144141
2.6265	-6.82E-06
2.627	-0.000156216
2.6275	4.73E-06
2.628	0.000554458
2.6285	0.001169174
2.629	0.001405295
2.6295	0.001070638
2.63	0.000254377
2.6305	-0.000810091
2.631	-0.001721759
2.6315	-0.001941664
2.632	-0.001186542
2.6325	0.000180008
2.633	0.00135864
2.6335	0.001771644
2.634	0.001438957
2.6345	0.000789794
2.635	0.00026813
2.6355	7.78E-05
2.636	0.000136188
2.6365	0.000242688
2.637	0.000347528
2.6375	0.000589213
2.638	0.001005841
2.6385	0.001355744
2.639	0.001384396
2.6395	0.00116208
2.64	0.000963651
2.6405	0.00087197
2.641	0.000692262
2.6415	0.000245875
2.642	-0.000408649
2.6425	-0.001045549
2.643	-0.001434966
2.6435	-0.001440736
2.644	-0.001075435
2.6445	-0.000495336
2.645	9.17E-05
2.6455	0.00050713
2.646	0.000622273
2.6465	0.000416501
2.647	4.22E-05
2.6475	-0.000297444
2.648	-0.000569884
2.6485	-0.000873103
2.649	-0.001172175
2.6495	-0.001305347
2.65	-0.001300066
2.6505	-0.00138994
2.651	-0.001587251
2.6515	-0.001556473
2.652	-0.00114284
2.6525	-0.000734341
2.653	-0.000774377
2.6535	-0.001121218
2.654	-0.001248548
2.6545	-0.000956844
2.655	-0.000523768
2.6555	-0.000204392
2.656	4.60E-05
2.6565	0.000301107
2.657	0.000442906
2.6575	0.000367052
2.658	0.000209002
2.6585	0.000199238
2.659	0.000383514
2.6595	0.000592774
2.66	0.000627812
2.6605	0.000410586
2.661	3.57E-05
2.6615	-0.000250039
2.662	-0.0002009
2.6625	0.00017763
2.663	0.000562835
2.6635	0.000608372
2.664	0.000307914
2.6645	-2.19E-05
2.665	-0.000123775
2.6655	-4.89E-05
2.666	3.18E-05
2.6665	0.000141226
2.667	0.000457016
2.6675	0.000973545
2.668	0.001384897
2.6685	0.001403371
2.669	0.001087616
2.6695	0.000736724
2.67	0.000537773
2.6705	0.000462014
2.671	0.00045467
2.6715	0.000529839
2.672	0.000642674
2.6725	0.000649538
2.673	0.000506912
2.6735	0.00039388
2.674	0.000503159
2.6745	0.000770488
2.675	0.000942358
2.6755	0.000888179
2.676	0.00071391
2.6765	0.000550914
2.677	0.000360544
2.6775	2.69E-05
2.678	-0.000419848
2.6785	-0.00075399
2.679	-0.000721576
2.6795	-0.000235153
2.68	0.000554558
2.6805	0.001325213
2.681	0.0017405
2.6815	0.001614965
2.682	0.000977388
2.6825	2.32E-06
2.683	-0.00108396
2.6835	-0.002016319
2.684	-0.002484091
2.6845	-0.002260076
2.685	-0.001436576
2.6855	-0.000471708
2.686	0.000157762
2.6865	0.000395471
2.687	0.000576876
2.6875	0.000908881
2.688	0.001147162
2.6885	0.000936135
2.689	0.000321001
2.6895	-0.000295456
2.69	-0.000619886
2.6905	-0.000669833
2.691	-0.000580104
2.6915	-0.000466939
2.692	-0.000469264
2.6925	-0.000666504
2.693	-0.000907636
2.6935	-0.000919951
2.694	-0.00063809
2.6945	-0.000282063
2.695	-0.000102332
2.6955	-0.00018274
2.696	-0.000460944
2.6965	-0.000772651
2.697	-0.000895557
2.6975	-0.00072113
2.698	-0.000377202
2.6985	-4.47E-05
2.699	0.000284361
2.6995	0.000682863
2.7	0.00099833
2.7005	0.000958555
2.701	0.000586201
2.7015	0.000241346
2.702	0.000152244
2.7025	0.000119327
2.703	-0.000175191
2.7035	-0.000721085
2.704	-0.001194388
2.7045	-0.001313143
2.705	-0.001038192
2.7055	-0.000498385
2.706	0.000121833
2.7065	0.000628519
2.707	0.000887397
2.7075	0.000899304
2.708	0.000758044
2.7085	0.000527168
2.709	0.000213607
2.7095	-0.000143876
2.71	-0.000442465
2.7105	-0.000592531
2.711	-0.000566861
2.7115	-0.000382288
2.712	-0.000129059
2.7125	-4.64E-06
2.713	-0.000156443
2.7135	-0.000445347
2.714	-0.000542437
2.7145	-0.000359683
2.715	-0.000208158
2.7155	-0.000373044
2.716	-0.000688757
2.7165	-0.000760606
2.717	-0.000528191
2.7175	-0.000364447
2.718	-0.000601676
2.7185	-0.001156102
2.719	-0.001676633
2.7195	-0.001907906
2.72	-0.001825871
2.7205	-0.00154651
2.721	-0.001224775
2.7215	-0.000968259
2.722	-0.000714546
2.7225	-0.000230895
2.723	0.000606399
2.7235	0.001520282
2.724	0.002001821
2.7245	0.001862691
2.725	0.001459027
2.7255	0.001225336
2.726	0.001150909
2.7265	0.000951147
2.727	0.000636448
2.7275	0.000572701
2.728	0.000942516
2.7285	0.001438458
2.729	0.001607398
2.7295	0.001307245
2.73	0.000744019
2.7305	0.000239563
2.731	3.48E-05
2.7315	0.000151239
2.732	0.00037451
2.7325	0.000504747
2.733	0.000624563
2.7335	0.000941596
2.734	0.001381509
2.7345	0.001592901
2.735	0.001421193
2.7355	0.001130885
2.736	0.001017049
2.7365	0.000977787
2.737	0.000654005
2.7375	-8.67E-05
2.738	-0.000960826
2.7385	-0.001558094
2.739	-0.001728472
2.7395	-0.00167072
2.74	-0.001686288
2.7405	-0.001862696
2.741	-0.001977392
2.7415	-0.001708111
2.742	-0.000966627
2.7425	-4.63E-05
2.743	0.000584659
2.7435	0.000677731
2.744	0.000395853
2.7445	0.000101354
2.745	-1.17E-06
2.7455	4.56E-05
2.746	0.000152799
2.7465	0.000327515
2.747	0.000596874
2.7475	0.000929518
2.748	0.001296906
2.7485	0.001700243
2.749	0.002058956
2.7495	0.002165343
2.75	0.00184381
2.7505	0.001120835
2.751	0.000214649
2.7515	-0.00057369
2.752	-0.000972787
2.7525	-0.000908751
2.753	-0.000631459
2.7535	-0.000527635
2.754	-0.000705022
2.7545	-0.000886855
2.755	-0.000821857
2.7555	-0.000638349
2.756	-0.000613799
2.7565	-0.000735602
2.757	-0.000757653
2.7575	-0.000637495
2.758	-0.000611891
2.7585	-0.000788195
2.759	-0.000947134
2.7595	-0.00088166
2.76	-0.000698986
2.7605	-0.000632953
2.761	-0.000761932
2.7615	-0.001063776
2.762	-0.0015078
2.7625	-0.001873697
2.763	-0.001734732
2.7635	-0.000962662
2.764	-9.11E-05
2.7645	0.000202288
2.765	-9.37E-05
2.7655	-0.00039272
2.766	-0.000340141
2.7665	-0.000158578
2.767	-0.000130977
2.7675	-0.000180647
2.768	-0.00013202
2.7685	-9.27E-06
2.769	0.000168078
2.7695	0.000583579
2.77	0.001327562
2.7705	0.002106944
2.771	0.002522206
2.7715	0.002484469
2.772	0.002128109
2.7725	0.001495903
2.773	0.000630619
2.7735	-0.000127263
2.774	-0.000315526
2.7745	0.000102569
2.775	0.000640298
2.7755	0.000862848
2.776	0.000863347
2.7765	0.001011026
2.777	0.001377539
2.7775	0.001635339
2.778	0.00149239
2.7785	0.001023228
2.779	0.000519727
2.7795	0.000174432
2.78	7.42E-06
2.7805	-1.39E-05
2.781	7.54E-05
2.7815	0.000201585
2.782	0.000266751
2.7825	0.000199904
2.783	-3.45E-05
2.7835	-0.000408109
2.784	-0.000755318
2.7845	-0.000837119
2.785	-0.000598905
2.7855	-0.000290679
2.786	-0.000190805
2.7865	-0.000264651
2.787	-0.000250436
2.7875	-3.81E-05
2.788	0.00022233
2.7885	0.000374719
2.789	0.000406298
2.7895	0.000314511
2.79	5.05E-05
2.7905	-0.000310857
2.791	-0.000549549
2.7915	-0.0005806
2.792	-0.000587409
2.7925	-0.000745716
2.793	-0.000997118
2.7935	-0.001246119
2.794	-0.001564902
2.7945	-0.00197358
2.795	-0.002216283
2.7955	-0.0020679
2.796	-0.001743488
2.7965	-0.001663744
2.797	-0.001854572
2.7975	-0.001913371
2.798	-0.001600668
2.7985	-0.001147794
2.799	-0.000855214
2.7995	-0.000622402
2.8	-5.96E-05
2.8005	0.001025202
2.801	0.002364182
2.8015	0.003398894
2.802	0.003657072
2.8025	0.003054494
2.803	0.001953358
2.8035	0.000925695
2.804	0.000355683
2.8045	0.00019944
2.805	0.000140453
2.8055	-2.26E-05
2.806	-0.000212163
2.8065	-0.000308962
2.807	-0.000395672
2.8075	-0.000600672
2.808	-0.000783443
2.8085	-0.000612443
2.809	1.02E-05
2.8095	0.000789957
2.81	0.001347617
2.8105	0.001503111
2.811	0.001222139
2.8115	0.000544111
2.812	-0.000302698
2.8125	-0.000953603
2.813	-0.001279193
2.8135	-0.001532383
2.814	-0.001933579
2.8145	-0.002296279
2.815	-0.002310601
2.8155	-0.002041588
2.816	-0.001848901
2.8165	-0.001894048
2.817	-0.002017353
2.8175	-0.002066003
2.818	-0.002052336
2.8185	-0.001954972
2.819	-0.001615083
2.8195	-0.000927334
2.82	9.33E-06
2.8205	0.000988009
2.821	0.001835261
2.8215	0.002434925
2.822	0.002719418
2.8225	0.002685447
2.823	0.002379633
2.8235	0.001874159
2.824	0.001292336
2.8245	0.00081963
2.825	0.000612301
2.8255	0.000672349
2.826	0.000831609
2.8265	0.000883614
2.827	0.000767291
2.8275	0.000632487
2.828	0.000680944
2.8285	0.000930028
2.829	0.001202502
2.8295	0.001362904
2.83	0.001444931
2.8305	0.001493142
2.831	0.001434529
2.8315	0.001236068
2.832	0.001059067
2.8325	0.001075457
2.833	0.001195957
2.8335	0.001144807
2.834	0.000763143
2.8345	0.000111667
2.835	-0.000639408
2.8355	-0.001254323
2.836	-0.001464956
2.8365	-0.001201019
2.837	-0.000761463
2.8375	-0.000528946
2.838	-0.000514849
2.8385	-0.000410722
2.839	-9.67E-05
2.8395	0.000158549
2.84	7.19E-05
2.8405	-0.000318322
2.841	-0.000792871
2.8415	-0.001210368
2.842	-0.001484265
2.8425	-0.001493473
2.843	-0.001208709
2.8435	-0.000805626
2.844	-0.000489769
2.8445	-0.000265193
2.845	1.57E-05
2.8455	0.000441149
2.846	0.000972028
2.8465	0.001505
2.847	0.00190514
2.8475	0.002036776
2.848	0.001851266
2.8485	0.001412174
2.849	0.000808418
2.8495	0.000125288
2.85	-0.00047883
2.8505	-0.000807045
2.851	-0.000822428
2.8515	-0.000716922
2.852	-0.000713163
2.8525	-0.000890363
2.853	-0.001241528
2.8535	-0.001730135
2.854	-0.002170063
2.8545	-0.002216321
2.855	-0.001689546
2.8555	-0.000847116
2.856	-0.000137574
2.8565	0.000287798
2.857	0.000627045
2.8575	0.000994111
2.858	0.001164878
2.8585	0.000868526
2.859	0.000171134
2.8595	-0.000589212
2.86	-0.001160373
2.8605	-0.001509393
2.861	-0.00165878
2.8615	-0.001591742
2.862	-0.001349411
2.8625	-0.001052196
2.863	-0.000752447
2.8635	-0.0003934
2.864	2.20E-05
2.8645	0.000358623
2.865	0.000531287
2.8655	0.000620874
2.866	0.000698953
2.8665	0.000674912
2.867	0.000476827
2.8675	0.000276531
2.868	0.000328847
2.8685	0.000614404
2.869	0.000833025
2.8695	0.000783181
2.87	0.000590846
2.8705	0.00048881
2.871	0.000494533
2.8715	0.000441097
2.872	0.000281913
2.8725	0.000197304
2.873	0.000326409
2.8735	0.000518745
2.874	0.000503026
2.8745	0.000240543
2.875	-7.56E-05
2.8755	-0.000338974
2.876	-0.000583367
2.8765	-0.000669329
2.877	-0.000243425
2.8775	0.000764741
2.878	0.00183146
2.8785	0.002306947
2.879	0.002084836
2.8795	0.00158235
2.88	0.001173249
2.8805	0.000884883
2.881	0.000564912
2.8815	8.57E-05
2.882	-0.000578268
2.8825	-0.001248156
2.883	-0.001555765
2.8835	-0.001284869
2.884	-0.000674994
2.8845	-0.000179433
2.885	3.94E-05
2.8855	0.000151493
2.886	0.000249817
2.8865	0.000194532
2.887	-8.89E-05
2.8875	-0.000431744
2.888	-0.000666744
2.8885	-0.000854693
2.889	-0.001133793
2.8895	-0.001474931
2.89	-0.001695509
2.8905	-0.001614497
2.891	-0.001129884
2.8915	-0.000279008
2.892	0.000688284
2.8925	0.00142058
2.893	0.001743528
2.8935	0.00173004
2.894	0.001460362
2.8945	0.000910841
2.895	0.000194494
2.8955	-0.000314413
2.896	-0.000347721
2.8965	-0.000137712
2.897	-0.000194872
2.8975	-0.000693383
2.898	-0.001268847
2.8985	-0.001462533
2.899	-0.001223229
2.8995	-0.000907406
2.9	-0.000865561
2.9005	-0.001090529
2.901	-0.00126128
2.9015	-0.001116542
2.902	-0.000750206
2.9025	-0.000473463
2.903	-0.000420966
2.9035	-0.000452067
2.904	-0.000468742
2.9045	-0.00060677
2.905	-0.000954867
2.9055	-0.001256309
2.906	-0.001116483
2.9065	-0.000444536
2.907	0.000480858
2.9075	0.001323223
2.908	0.001904324
2.9085	0.00217198
2.909	0.002147455
2.9095	0.001930343
2.91	0.001642437
2.9105	0.001341374
2.911	0.001035373
2.9115	0.000752501
2.912	0.000542613
2.9125	0.000450567
2.913	0.00052887
2.9135	0.000808391
2.914	0.001191577
2.9145	0.001444835
2.915	0.00139727
2.9155	0.001124795
2.916	0.000857021
2.9165	0.000711333
2.917	0.000594447
2.9175	0.000376502
2.918	8.80E-05
2.9185	-0.000110054
2.919	-0.000123453
2.9195	-3.30E-05
2.92	8.29E-07
2.9205	-0.000107698
2.921	-0.000334499
2.9215	-0.000607885
2.922	-0.000845225
2.9225	-0.000966357
2.923	-0.000963704
2.9235	-0.000961356
2.924	-0.001113989
2.9245	-0.001422906
2.925	-0.001738319
2.9255	-0.00197479
2.926	-0.002213286
2.9265	-0.002505758
2.927	-0.002671913
2.9275	-0.002427046
2.928	-0.001699139
2.9285	-0.000726023
2.929	0.000156227
2.9295	0.000758432
2.93	0.001112947
2.9305	0.001398887
2.931	0.001772026
2.9315	0.002173872
2.932	0.002326846
2.9325	0.002028715
2.933	0.001452537
2.9335	0.001028874
2.934	0.000985734
2.9345	0.001110077
2.935	0.001029488
2.9355	0.000640514
2.936	0.000176615
2.9365	-7.39E-05
2.937	-1.72E-05
2.9375	0.000224611
2.938	0.000426165
2.9385	0.000410944
2.939	0.000206608
2.9395	7.09E-05
2.94	0.000261476
2.9405	0.000708602
2.941	0.000965475
2.9415	0.000585483
2.942	-0.000403681
2.9425	-0.001445501
2.943	-0.001941068
2.9435	-0.001775201
2.944	-0.001287809
2.9445	-0.000788687
2.945	-0.000334576
2.9455	-5.09E-05
2.946	-0.000332305
2.9465	-0.001365125
2.947	-0.002613336
2.9475	-0.003238834
2.948	-0.003064697
2.9485	-0.002701575
2.949	-0.002618772
2.9495	-0.002546543
2.95	-0.002034325
2.9505	-0.001161452
2.951	-0.000301889
2.9515	0.000486859
2.952	0.001357204
2.9525	0.002147108
2.953	0.002480506
2.9535	0.002360397
2.954	0.00220018
2.9545	0.002201047
2.955	0.002099023
2.9555	0.001657027
2.956	0.001060125
2.9565	0.000638116
2.957	0.000478996
2.9575	0.000534776
2.958	0.000870232
2.9585	0.001523734
2.959	0.002254453
2.9595	0.002700212
2.96	0.002726796
2.9605	0.002400445
2.961	0.001706163
2.9615	0.000606069
2.962	-0.000601394
2.9625	-0.001303523
2.963	-0.001142303
2.9635	-0.000412553
2.964	0.000260321
2.9645	0.00055547
2.965	0.000652756
2.9655	0.00086666
2.966	0.001233998
2.9665	0.00149132
2.967	0.001366381
2.9675	0.000823833
2.968	7.91E-05
2.9685	-0.000521492
2.969	-0.000666681
2.9695	-0.000327416
2.97	7.90E-05
2.9705	-2.53E-05
2.971	-0.000764956
2.9715	-0.00164956
2.972	-0.002177106
2.9725	-0.002363966
2.973	-0.002451309
2.9735	-0.002393539
2.974	-0.002034699
2.9745	-0.001558776
2.975	-0.001282945
2.9755	-0.0011475
2.976	-0.000910548
2.9765	-0.000737537
2.977	-0.001026004
2.9775	-0.001644002
2.978	-0.001912384
2.9785	-0.001462034
2.979	-0.000637325
2.9795	6.86E-05
2.98	0.00053216
2.9805	0.000820084
2.981	0.000933347
2.9815	0.000933037
2.982	0.000976839
2.9825	0.001038016
2.983	0.000868247
2.9835	0.000387346
2.984	-0.000157374
2.9845	-0.000545274
2.985	-0.000826239
2.9855	-0.001083384
2.986	-0.001221354
2.9865	-0.001152942
2.987	-0.000974073
2.9875	-0.000786948
2.988	-0.00052302
2.9885	-9.41E-05
2.989	0.000409434
2.9895	0.000791287
2.99	0.0009289
2.9905	0.000831358
2.991	0.000646245
2.9915	0.000644664
2.992	0.001026152
2.9925	0.001646605
2.993	0.002075642
2.9935	0.002018854
2.994	0.00157582
2.9945	0.001012944
2.995	0.000428013
2.9955	-0.000228201
2.996	-0.000905856
2.9965	-0.001415394
2.997	-0.001632104
2.9975	-0.001611634
2.998	-0.001467107
2.9985	-0.001223828
2.999	-0.000855274
2.9995	-0.000406343
3	-3.90E-06
3.0005	0.000244079
3.001	0.000303423
3.0015	0.00018518
3.002	-5.42E-05
3.0025	-0.000270516
3.003	-0.0002835
3.0035	-3.24E-05
3.004	0.000379786
3.0045	0.000845725
3.005	0.001370555
3.0055	0.001929407
3.006	0.002280144
3.0065	0.002098784
3.007	0.001346594
3.0075	0.000363094
3.008	-0.000496805
3.0085	-0.001202953
3.009	-0.001889971
3.0095	-0.00244636
3.01	-0.002484824
3.0105	-0.001770144
3.011	-0.00052651
3.0115	0.000741395
3.012	0.001614825
3.0125	0.001917345
3.013	0.001691899
3.0135	0.001175152
3.014	0.000717343
3.0145	0.000578778
3.015	0.000770224
3.0155	0.001100585
3.016	0.001341727
3.0165	0.001350783
3.017	0.001125798
3.0175	0.000795769
3.018	0.000503143
3.0185	0.000260119
3.019	-2.46E-05
3.0195	-0.000350992
3.02	-0.000547828
3.0205	-0.000463068
3.021	-0.00016128
3.0215	0.000180596
3.022	0.000517939
3.0225	0.000913955
3.023	0.001282677
3.0235	0.001375819
3.024	0.001111432
3.0245	0.000711562
3.025	0.000363896
3.0255	-7.05E-05
3.026	-0.000794054
3.0265	-0.001628237
3.027	-0.002067637
3.0275	-0.001764444
3.028	-0.000829433
3.0285	0.000273147
3.029	0.000979058
3.0295	0.000872713
3.03	-7.14E-05
3.0305	-0.001423642
3.031	-0.002549619
3.0315	-0.002962964
3.032	-0.00251094
3.0325	-0.001411628
3.033	-0.000179911
3.0335	0.000673788
3.034	0.001014643
3.0345	0.001062349
3.035	0.000982965
3.0355	0.000721161
3.036	0.000298406
3.0365	-2.95E-05
3.037	-0.000111825
3.0375	-0.000162279
3.038	-0.000448376
3.0385	-0.000906626
3.039	-0.001285913
3.0395	-0.001501119
3.04	-0.001610941
3.0405	-0.001601243
3.041	-0.001450344
3.0415	-0.0012924
3.042	-0.001240125
3.0425	-0.001107168
3.043	-0.000579227
3.0435	0.000333087
3.044	0.001235472
3.0445	0.00177397
3.045	0.001934706
3.0455	0.001886078
3.046	0.001707363
3.0465	0.001376094
3.047	0.000907537
3.0475	0.000373115
3.048	-0.000193675
3.0485	-0.00079946
3.049	-0.001368882
3.0495	-0.001710154
3.05	-0.0016968
3.0505	-0.001453085
3.051	-0.001247606
3.0515	-0.001186773
3.052	-0.001116068
3.0525	-0.000862739
3.053	-0.000475745
3.0535	-0.00015047
3.054	2.29E-05
3.0545	0.000147313
3.055	0.000355851
3.0555	0.000620537
3.056	0.000775253
3.0565	0.000729415
3.057	0.000595058
3.0575	0.000557502
3.058	0.000690954
3.0585	0.000977434
3.059	0.001408932
3.0595	0.001921761
3.06	0.002297207
3.0605	0.002309461
3.061	0.001958724
3.0615	0.001435591
3.062	0.000936195
3.0625	0.000660183
3.063	0.000834971
3.0635	0.001459907
3.064	0.002096804
3.0645	0.002205947
3.065	0.001688769
3.0655	0.000886376
3.066	0.000112157
3.0665	-0.000552088
3.067	-0.001050308
3.0675	-0.001243493
3.068	-0.001066292
3.0685	-0.000644004
3.069	-0.000259032
3.0695	-0.000250651
3.07	-0.000770015
3.0705	-0.001497903
3.071	-0.001817666
3.0715	-0.001462092
3.072	-0.000791564
3.0725	-0.000254932
3.073	0.000149604
3.0735	0.000606072
3.074	0.000954901
3.0745	0.00085799
3.075	0.000393877
3.0755	9.21E-05
3.076	0.000299531
3.0765	0.000728013
3.077	0.00069636
3.0775	-0.000267253
3.078	-0.002023783
3.0785	-0.003894502
3.079	-0.005132432
3.0795	-0.005404929
3.08	-0.004868096
3.0805	-0.003884444
3.081	-0.002804554
3.0815	-0.001920771
3.082	-0.001340921
3.0825	-0.000852767
3.083	-0.000153171
3.0835	0.000723837
3.084	0.001437813
3.0845	0.001840577
3.085	0.002146203
3.0855	0.002500998
3.086	0.002704631
3.0865	0.002547144
3.087	0.00214042
3.0875	0.001677237
3.088	0.001101061
3.0885	0.000301244
3.089	-0.000525975
3.0895	-0.00100866
3.09	-0.001020257
3.0905	-0.000725586
3.091	-0.000257889
3.0915	0.000395242
3.092	0.001151819
3.0925	0.001697064
3.093	0.001715712
3.0935	0.001199041
3.094	0.000458437
3.0945	-0.000115276
3.095	-0.000261436
3.0955	9.36E-05
3.096	0.000834789
3.0965	0.001664342
3.097	0.002213238
3.0975	0.002259099
3.098	0.001835873
3.0985	0.001115655
3.099	0.000267769
3.0995	-0.000511981
3.1	-0.000975694
3.1005	-0.001009929
3.101	-0.000804337
3.1015	-0.000657706
3.102	-0.0006119
3.1025	-0.000431557
3.103	3.28E-05
3.1035	0.000608966
3.104	0.000984844
3.1045	0.001028093
3.105	0.000877547
3.1055	0.000779222
3.106	0.000845826
3.1065	0.00092746
3.107	0.000746254
3.1075	0.000233153
3.108	-0.000321216
3.1085	-0.000578755
3.109	-0.00057973
3.1095	-0.00067077
3.11	-0.000983283
3.1105	-0.001214704
3.111	-0.001077859
3.1115	-0.00077131
3.112	-0.000728192
3.1125	-0.000964931
3.113	-0.000988582
3.1135	-0.000417109
3.114	0.000567622
3.1145	0.001500958
3.115	0.002117227
3.1155	0.002357202
3.116	0.002122765
3.1165	0.001351538
3.117	0.000284427
3.1175	-0.000633291
3.118	-0.001176805
3.1185	-0.001480633
3.119	-0.001713681
3.1195	-0.001809107
3.12	-0.001614031
3.1205	-0.001162857
3.121	-0.000676439
3.1215	-0.000366092
3.122	-0.000325143
3.1225	-0.000524381
3.123	-0.000801
3.1235	-0.00092298
3.124	-0.000806286
3.1245	-0.000645489
3.125	-0.000695684
3.1255	-0.00092049
3.126	-0.000988055
3.1265	-0.000663845
3.127	-0.000109007
3.1275	0.000278751
3.128	0.000259074
3.1285	-8.47E-05
3.129	-0.000526712
3.1295	-0.000938716
3.13	-0.001307837
3.1305	-0.001576969
3.131	-0.001565409
3.1315	-0.00110393
3.132	-0.000251876
3.1325	0.000647986
3.133	0.001189488
3.1335	0.001237705
3.134	0.001033148
3.1345	0.000908721
3.135	0.000938256
3.1355	0.000959058
3.136	0.000882706
3.1365	0.000791221
3.137	0.000717758
3.1375	0.000562268
3.138	0.000316041
3.1385	0.000167952
3.139	0.00025325
3.1395	0.000451795
3.14	0.000572627
3.1405	0.000612942
3.141	0.00069656
3.1415	0.000847587
3.142	0.000946233
3.1425	0.00084252
3.143	0.000432664
3.1435	-0.000275721
3.144	-0.001056323
3.1445	-0.001502013
3.145	-0.001322815
3.1455	-0.000619571
3.146	0.000195149
3.1465	0.000719648
3.147	0.000782999
3.1475	0.00045866
3.148	-2.08E-05
3.1485	-0.000409097
3.149	-0.00060337
3.1495	-0.000643391
3.15	-0.000549072
3.1505	-0.000275966
3.151	0.000122051
3.1515	0.000446469
3.152	0.000579763
3.1525	0.000625862
3.153	0.000726412
3.1535	0.000892357
3.154	0.001130482
3.1545	0.001533346
3.155	0.002035308
3.1555	0.002230956
3.156	0.001705599
3.1565	0.00052922
3.157	-0.000757706
3.1575	-0.001649617
3.158	-0.002051313
3.1585	-0.002177558
3.159	-0.002205383
3.1595	-0.002066394
3.16	-0.001558475
3.1605	-0.000648371
3.161	0.000386086
3.1615	0.001174269
3.162	0.001565597
3.1625	0.001644309
3.163	0.001514106
3.1635	0.001233409
3.164	0.000939877
3.1645	0.000837709
3.165	0.000978406
3.1655	0.001170935
3.166	0.001196859
3.1665	0.001052124
3.167	0.000909923
3.1675	0.000881185
3.168	0.000854609
3.1685	0.000549621
3.169	-0.000266228
3.1695	-0.001519936
3.17	-0.002752821
3.1705	-0.003412974
3.171	-0.003339717
3.1715	-0.002893324
3.172	-0.002509996
3.1725	-0.002227697
3.173	-0.001799126
3.1735	-0.001165559
3.174	-0.000576263
3.1745	-0.000254726
3.175	-0.00018323
3.1755	-0.000243863
3.176	-0.000339832
3.1765	-0.000314598
3.177	2.14E-05
3.1775	0.000660112
3.178	0.00133272
3.1785	0.00174659
3.179	0.001766208
3.1795	0.001371886
3.18	0.000655314
3.1805	-0.000115458
3.181	-0.000667786
3.1815	-0.001026749
3.182	-0.001412336
3.1825	-0.001777147
3.183	-0.00173958
3.1835	-0.0011204
3.184	-0.000277186
3.1845	0.000296404
3.185	0.000498394
3.1855	0.000554565
3.186	0.000632146
3.1865	0.000750053
3.187	0.00091171
3.1875	0.001063783
3.188	0.001013431
3.1885	0.000637368
3.189	0.000144441
3.1895	-7.23E-05
3.19	0.000161409
3.1905	0.000688191
3.191	0.001252462
3.1915	0.00166649
3.192	0.001789261
3.1925	0.001564797
3.193	0.001128409
3.1935	0.000719432
3.194	0.000444159
3.1945	0.000238397
3.195	5.90E-05
3.1955	-4.60E-05
3.196	-7.39E-05
3.1965	-9.45E-05
3.197	-7.56E-05
3.1975	0.000153284
3.198	0.000658941
3.1985	0.001241324
3.199	0.001606144
3.1995	0.0016032
3.2	0.001226142
3.2005	0.000513624
3.201	-0.000414263
3.2015	-0.001295238
3.202	-0.001833458
3.2025	-0.001885571
3.203	-0.001539896
3.2035	-0.00107107
3.204	-0.000793868
3.2045	-0.000845468
3.205	-0.001103349
3.2055	-0.001389877
3.206	-0.001668518
3.2065	-0.00190084
3.207	-0.001873786
3.2075	-0.001456149
3.208	-0.000916777
3.2085	-0.000629865
3.209	-0.000521121
3.2095	-0.000213712
3.21	0.000285821
3.2105	0.000523353
3.211	0.000322769
3.2115	0.000110004
3.212	0.000301706
3.2125	0.000761989
3.213	0.001114236
3.2135	0.001243125
3.214	0.001192669
3.2145	0.000864128
3.215	0.000177959
3.2155	-0.000627106
3.216	-0.001175317
3.2165	-0.00134631
3.217	-0.001247592
3.2175	-0.000909028
3.218	-0.000282351
3.2185	0.000495391
3.219	0.001100902
3.2195	0.001336577
3.22	0.001281356
3.2205	0.001099642
3.221	0.000848125
3.2215	0.000535723
3.222	0.000259334
3.2225	0.000161308
3.223	0.000264778
3.2235	0.000437813
3.224	0.000562141
3.2245	0.000686479
3.225	0.00093423
3.2255	0.001269517
3.226	0.001464376
3.2265	0.001359462
3.227	0.001075133
3.2275	0.000866652
3.228	0.000815001
3.2285	0.000769276
3.229	0.000583031
3.2295	0.000294107
3.23	2.82E-05
3.2305	-0.000206711
3.231	-0.000560724
3.2315	-0.001155563
3.232	-0.00186212
3.2325	-0.002311356
3.233	-0.002220102
3.2335	-0.001728182
3.234	-0.00130518
3.2345	-0.001242448
3.235	-0.001320255
3.2355	-0.001083223
3.236	-0.000376745
3.2365	0.00052723
3.237	0.001295111
3.2375	0.001838897
3.238	0.002215878
3.2385	0.002388787
3.239	0.00223156
3.2395	0.001738731
3.24	0.001124694
3.2405	0.00068303
3.241	0.000553554
3.2415	0.00060663
3.242	0.000561852
3.2425	0.000286667
3.243	-8.28E-06
3.2435	2.45E-05
3.244	0.000406521
3.2445	0.000704815
3.245	0.000501268
3.2455	-0.000122587
3.246	-0.000766964
3.2465	-0.001276442
3.247	-0.001812848
3.2475	-0.002372738
3.248	-0.002614393
3.2485	-0.002333902
3.249	-0.001804158
3.2495	-0.001403435
3.25	-0.001157649
3.2505	-0.000913803
