0	0.002012151
0.002	0.002012078
0.004	0.002012033
0.006	0.002011976
0.008	0.002011898
0.01	0.00201181
0.012	0.002011766
0.014	0.002011717
0.016	0.00201166
0.018	0.002011597
0.02	0.002011551
0.022	0.002011472
0.024	0.002011434
0.026	0.002011377
0.028	0.002011317
0.03	0.002011272
0.032	0.002011238
0.034	0.00201119
0.036	0.002011145
0.038	0.002011133
0.04	0.002011094
0.042	0.002011045
0.044	0.002011012
0.046	0.002011001
0.048	0.002010989
0.05	0.002010974
0.052	0.00201096
0.054	0.002010965
0.056	0.002010967
0.058	0.002010953
0.06	0.002010942
0.062	0.00201097
0.064	0.002010988
0.066	0.002010995
0.068	0.002011023
0.07	0.002011053
0.072	0.002011098
0.074	0.002011129
0.076	0.002011153
0.078	0.002011194
0.08	0.002011229
0.082	0.00201127
0.084	0.002011329
0.086	0.002011389
0.088	0.002011448
0.09	0.002011518
0.092	0.00201156
0.094	0.002011607
0.096	0.00201172
0.098	0.002011785
0.1	0.002011859
0.102	0.00201191
0.104	0.002012019
0.106	0.002012091
0.108	0.002012149
0.11	0.002012198
0.112	0.002012299
0.114	0.002012373
0.116	0.002012451
0.118	0.002012516
0.12	0.002012583
0.122	0.002012644
0.124	0.002012707
0.126	0.002012763
0.128	0.002012814
0.13	0.002012866
0.132	0.00201293
0.134	0.002012964
0.136	0.00201299
0.138	0.002013043
0.14	0.002013077
0.142	0.002013085
0.144	0.002013096
0.146	0.002013141
0.148	0.00201316
0.15	0.002013136
0.152	0.002013117
0.154	0.002013142
0.156	0.002013136
0.158	0.002013104
0.16	0.002013077
0.162	0.00201307
0.164	0.002013039
0.166	0.002013018
0.168	0.002012964
0.17	0.002012935
0.172	0.002012884
0.174	0.002012835
0.176	0.002012788
0.178	0.002012734
0.18	0.002012667
0.182	0.002012615
0.184	0.002012533
0.186	0.002012466
0.188	0.002012398
0.19	0.002012341
0.192	0.002012261
0.194	0.002012149
0.196	0.002012078
0.198	0.002011999
0.2	0.002011899
0.202	0.002011784
0.204	0.002011699
0.206	0.002011613
0.208	0.002011508
0.21	0.002011392
0.212	0.002011311
0.214	0.002011202
0.216	0.002011084
0.218	0.002010971
0.22	0.002010877
0.222	0.00201076
0.224	0.002010654
0.226	0.002010543
0.228	0.00201043
0.23	0.002010322
0.232	0.002010222
0.234	0.002010094
0.236	0.002009973
0.238	0.002009876
0.24	0.002009774
0.242	0.002009678
0.244	0.002009535
0.246	0.002009433
0.248	0.00200932
0.25	0.002009206
0.252	0.00200907
0.254	0.002008996
0.256	0.002008893
0.258	0.00200876
0.26	0.002008645
0.262	0.002008545
0.264	0.00200843
0.266	0.002008326
0.268	0.002008232
0.27	0.002008131
0.272	0.002008017
0.274	0.002007912
0.276	0.002007811
0.278	0.002007703
0.28	0.002007593
0.282	0.002007496
0.284	0.002007392
0.286	0.002007286
0.288	0.002007207
0.29	0.002007139
0.292	0.002007024
0.294	0.002006913
0.296	0.002006833
0.298	0.002006758
0.3	0.002006636
0.302	0.002006538
0.304	0.002006483
0.306	0.002006406
0.308	0.002006304
0.31	0.002006198
0.312	0.002006133
0.314	0.002006055
0.316	0.002005979
0.318	0.002005884
0.32	0.002005816
0.322	0.002005725
0.324	0.002005662
0.326	0.002005569
0.328	0.002005507
0.33	0.002005431
0.332	0.002005392
0.334	0.002005308
0.336	0.002005224
0.338	0.002005163
0.34	0.002005101
0.342	0.002005028
0.344	0.00200496
0.346	0.002004896
0.348	0.002004842
0.35	0.002004761
0.352	0.002004678
0.354	0.002004643
0.356	0.002004583
0.358	0.002004515
0.36	0.002004431
0.362	0.002004375
0.364	0.002004332
0.366	0.002004273
0.368	0.002004226
0.37	0.00200417
0.372	0.002004097
0.374	0.002004044
0.376	0.002004005
0.378	0.002003944
0.38	0.002003886
0.382	0.002003818
0.384	0.002003779
0.386	0.002003718
0.388	0.002003679
0.39	0.002003635
0.392	0.002003573
0.394	0.002003515
0.396	0.002003476
0.398	0.002003435
0.4	0.002003378
0.402	0.00200331
0.404	0.002003281
0.406	0.002003236
0.408	0.002003184
0.41	0.002003123
0.412	0.002003094
0.414	0.002003057
0.416	0.002003008
0.418	0.002002943
0.42	0.002002906
0.422	0.002002868
0.424	0.002002816
0.426	0.002002772
0.428	0.002002731
0.43	0.002002687
0.432	0.002002666
0.434	0.002002611
0.436	0.002002552
0.438	0.002002517
0.44	0.002002493
0.442	0.002002471
0.444	0.00200241
0.446	0.00200241
0.448	0.002002354
0.45	0.002002304
0.452	0.002002244
0.454	0.002002241
0.456	0.002002219
0.458	0.002002161
0.46	0.002002124
0.462	0.002002107
0.464	0.002002064
0.466	0.002002038
0.468	0.002002
0.47	0.002001971
0.472	0.002001918
0.474	0.002001915
0.476	0.002001868
0.478	0.002001851
0.48	0.002001812
0.482	0.002001801
0.484	0.002001765
0.486	0.002001712
0.488	0.002001688
0.49	0.002001684
0.492	0.002001638
0.494	0.002001606
0.496	0.002001592
0.498	0.002001582
0.5	0.002001525
0.502	0.002001475
0.504	0.002001472
0.506	0.002001453
0.508	0.002001412
0.51	0.002001368
0.512	0.002001363
0.514	0.002001344
0.516	0.002001318
0.518	0.002001276
0.52	0.002001269
0.522	0.00200124
0.524	0.00200122
0.526	0.002001203
0.528	0.002001173
0.53	0.002001142
0.532	0.002001131
0.534	0.002001094
0.536	0.00200104
0.538	0.002001056
0.54	0.002001034
0.542	0.002000994
0.544	0.002000962
0.546	0.00200095
0.548	0.002000939
0.55	0.002000908
0.552	0.002000855
0.554	0.002000875
0.556	0.002000853
0.558	0.002000822
0.56	0.002000761
0.562	0.002000757
0.564	0.002000746
0.566	0.002000715
0.568	0.002000695
0.57	0.002000679
0.572	0.002000655
0.574	0.002000639
0.576	0.00200061
0.578	0.002000595
0.58	0.002000555
0.582	0.002000558
0.584	0.002000537
0.586	0.00200051
0.588	0.002000505
0.59	0.002000499
0.592	0.002000473
0.594	0.002000441
0.596	0.002000455
0.598	0.002000453
0.6	0.002000414
0.602	0.002000411
0.604	0.002000429
0.606	0.002000438
0.608	0.002000436
0.61	0.00200043
0.612	0.002000466
0.614	0.002000495
0.616	0.002000544
0.618	0.002000591
0.62	0.002000685
0.622	0.002000772
0.624	0.002000914
0.626	0.002001076
0.628	0.002001267
0.63	0.002001514
0.632	0.002001809
0.634	0.002002141
0.636	0.002002528
0.638	0.002002979
0.64	0.002003469
0.642	0.002004025
0.644	0.002004586
0.646	0.002005218
0.648	0.002005882
0.65	0.002006533
0.652	0.002007174
0.654	0.002007883
0.656	0.00200857
0.658	0.00200925
0.66	0.002009917
0.662	0.002010606
0.664	0.002011232
0.666	0.002011866
0.668	0.002012456
0.67	0.002013025
0.672	0.00201354
0.674	0.002014039
0.676	0.002014491
0.678	0.002014923
0.68	0.002015312
0.682	0.002015706
0.684	0.002016072
0.686	0.002016391
0.688	0.002016731
0.69	0.002017014
0.692	0.002017275
0.694	0.002017489
0.696	0.002017738
0.698	0.002017956
0.7	0.002018123
0.702	0.002018245
0.704	0.002018403
0.706	0.002018515
0.708	0.002018612
0.71	0.002018672
0.712	0.002018768
0.714	0.002018817
0.716	0.002018854
0.718	0.002018881
0.72	0.002018914
0.722	0.002018906
0.724	0.002018919
0.726	0.002018903
0.728	0.002018872
0.73	0.002018837
0.732	0.002018817
0.734	0.002018766
0.736	0.002018689
0.738	0.002018655
0.74	0.002018611
0.742	0.002018529
0.744	0.00201844
0.746	0.002018378
0.748	0.002018297
0.75	0.002018214
0.752	0.002018076
0.754	0.002018016
0.756	0.002017858
0.758	0.002017736
0.76	0.00201759
0.762	0.002017474
0.764	0.002017321
0.766	0.002017185
0.768	0.002017042
0.77	0.002016873
0.772	0.002016695
0.774	0.002016541
0.776	0.00201639
0.778	0.002016205
0.78	0.002016027
0.782	0.002015862
0.784	0.002015663
0.786	0.002015475
0.788	0.002015318
0.79	0.002015144
0.792	0.002014959
0.794	0.002014733
0.796	0.002014581
0.798	0.002014408
0.8	0.00201422
0.802	0.002014036
0.804	0.002013868
0.806	0.002013691
0.808	0.002013532
0.81	0.002013333
0.812	0.002013193
0.814	0.002013021
0.816	0.002012874
0.818	0.002012704
0.82	0.002012564
0.822	0.002012417
0.824	0.002012274
0.826	0.002012128
0.828	0.00201198
0.83	0.002011856
0.832	0.002011736
0.834	0.002011614
0.836	0.002011474
0.838	0.002011382
0.84	0.002011262
0.842	0.002011151
0.844	0.002011023
0.846	0.002010924
0.848	0.00201084
0.85	0.002010729
0.852	0.002010613
0.854	0.002010524
0.856	0.002010442
0.858	0.002010313
0.86	0.002010207
0.862	0.002010121
0.864	0.002010024
0.866	0.002009929
0.868	0.002009827
0.87	0.002009745
0.872	0.002009644
0.874	0.002009571
0.876	0.002009478
0.878	0.002009382
0.88	0.002009293
0.882	0.002009219
0.884	0.002009134
0.886	0.002009057
0.888	0.002009
0.89	0.002008947
0.892	0.002008857
0.894	0.002008792
0.896	0.002008758
0.898	0.002008699
0.9	0.002008656
0.902	0.002008606
0.904	0.002008599
0.906	0.002008584
0.908	0.002008549
0.91	0.002008506
0.912	0.002008503
0.914	0.002008505
0.916	0.002008514
0.918	0.002008514
0.92	0.002008534
0.922	0.002008555
0.924	0.002008577
0.926	0.002008602
0.928	0.002008633
0.93	0.002008674
0.932	0.002008738
0.934	0.002008783
0.936	0.002008831
0.938	0.002008909
0.94	0.002008986
0.942	0.002009087
0.944	0.002009134
0.946	0.002009241
0.948	0.002009346
0.95	0.002009436
0.952	0.002009519
0.954	0.002009643
0.956	0.002009768
0.958	0.002009882
0.96	0.002009964
0.962	0.0020101
0.964	0.002010215
0.966	0.002010331
0.968	0.002010445
0.97	0.002010547
0.972	0.002010681
0.974	0.002010809
0.976	0.002010922
0.978	0.002011032
0.98	0.002011127
0.982	0.002011251
0.984	0.002011351
0.986	0.002011437
0.988	0.002011552
0.99	0.002011639
0.992	0.002011716
0.994	0.00201176
0.996	0.002011868
0.998	0.002011951
1	0.002012008
1.002	0.002012032
1.004	0.002012109
1.006	0.002012157
1.008	0.002012203
1.01	0.002012213
1.012	0.002012247
1.014	0.002012261
1.016	0.002012269
1.018	0.002012246
1.02	0.002012265
1.022	0.002012258
1.024	0.00201224
1.026	0.002012214
1.028	0.002012207
1.03	0.002012178
1.032	0.002012139
1.034	0.002012105
1.036	0.002012046
1.038	0.002012006
1.04	0.002011972
1.042	0.002011908
1.044	0.002011802
1.046	0.002011776
1.048	0.002011723
1.05	0.002011629
1.052	0.002011531
1.054	0.002011466
1.056	0.002011404
1.058	0.002011295
1.06	0.002011197
1.062	0.002011112
1.064	0.002010987
1.066	0.002010898
1.068	0.00201079
1.07	0.002010675
1.072	0.002010563
1.074	0.00201046
1.076	0.002010352
1.078	0.002010231
1.08	0.002010109
1.082	0.002009997
1.084	0.002009893
1.086	0.002009757
1.088	0.00200965
1.09	0.002009529
1.092	0.002009397
1.094	0.002009262
1.096	0.002009159
1.098	0.002009049
1.1	0.002008914
1.102	0.002008775
1.104	0.002008678
1.106	0.002008571
1.108	0.002008434
1.11	0.002008307
1.112	0.002008196
1.114	0.002008073
1.116	0.00200797
1.118	0.002007845
1.12	0.002007728
1.122	0.002007621
1.124	0.002007514
1.126	0.002007402
1.128	0.002007308
1.13	0.002007196
1.132	0.00200708
1.134	0.002006972
1.136	0.002006862
1.138	0.002006767
1.14	0.002006661
1.142	0.002006566
1.144	0.002006455
1.146	0.002006374
1.148	0.002006291
1.15	0.002006167
1.152	0.002006059
1.154	0.002005996
1.156	0.002005916
1.158	0.002005813
1.16	0.002005707
1.162	0.002005642
1.164	0.002005551
1.166	0.002005462
1.168	0.002005372
1.17	0.002005293
1.172	0.002005233
1.174	0.002005156
1.176	0.002005074
1.178	0.002005004
1.18	0.002004924
1.182	0.00200486
1.184	0.002004788
1.186	0.002004709
1.188	0.00200465
1.19	0.002004592
1.192	0.002004497
1.194	0.002004432
1.196	0.002004387
1.198	0.002004335
1.2	0.00200427
1.202	0.002004162
1.204	0.002004138
1.206	0.002004078
1.208	0.002004024
1.21	0.002003936
1.212	0.002003904
1.214	0.002003843
1.216	0.002003781
1.218	0.002003677
1.22	0.002003629
1.222	0.002003561
1.224	0.002003518
1.226	0.002003466
1.228	0.002003414
1.23	0.002003352
1.232	0.002003352
1.234	0.002003305
1.236	0.002003259
1.238	0.002003212
1.24	0.002003204
1.242	0.00200313
1.244	0.002003062
1.246	0.002003031
1.248	0.002002978
1.25	0.002002866
1.252	0.002002862
1.254	0.002002827
1.256	0.002002779
1.258	0.002002723
1.26	0.002002711
1.262	0.002002711
1.264	0.002002648
1.266	0.00200258
1.268	0.002002524
1.27	0.002002471
1.272	0.002002434
1.274	0.002002412
1.276	0.002002412
1.278	0.002002327
1.28	0.0020023
1.282	0.002002263
1.284	0.002002221
1.286	0.002002193
1.288	0.002002183
1.29	0.00200213
1.292	0.002002076
1.294	0.002002054
1.296	0.002002052
1.298	0.002002002
1.3	0.002001949
1.302	0.002001936
1.304	0.002001907
1.306	0.002001867
1.308	0.002001821
1.31	0.002001803
1.312	0.002001778
1.314	0.002001753
1.316	0.002001709
1.318	0.002001682
1.32	0.002001651
1.322	0.002001643
1.324	0.002001604
1.326	0.002001563
1.328	0.002001531
1.33	0.002001511
1.332	0.002001463
1.334	0.002001438
1.336	0.002001424
1.338	0.002001421
1.34	0.002001367
1.342	0.002001323
1.344	0.002001324
1.346	0.002001295
1.348	0.002001251
1.35	0.002001205
1.352	0.002001181
1.354	0.002001177
1.356	0.002001143
1.358	0.002001093
1.36	0.002001088
1.362	0.002001035
1.364	0.002001019
1.366	0.002001002
1.368	0.002000965
1.37	0.002000964
1.372	0.002000939
1.374	0.002000907
1.376	0.002000865
1.378	0.002000815
1.38	0.002000818
1.382	0.002000796
1.384	0.00200076
1.386	0.002000747
1.388	0.002000739
1.39	0.002000705
1.392	0.002000661
1.394	0.002000662
1.396	0.002000656
1.398	0.002000614
1.4	0.002000593
1.402	0.002000607
1.404	0.002000587
1.406	0.00200056
1.408	0.002000542
1.41	0.002000557
1.412	0.002000534
1.414	0.002000541
1.416	0.002000534
1.418	0.002000556
1.42	0.002000575
1.422	0.002000601
1.424	0.002000639
1.426	0.002000698
1.428	0.00200079
1.43	0.002000865
1.432	0.002000969
1.434	0.002001117
1.436	0.002001317
1.438	0.002001558
1.44	0.002001836
1.442	0.00200216
1.444	0.002002558
1.446	0.002003005
1.448	0.002003495
1.45	0.002004022
1.452	0.002004644
1.454	0.002005276
1.456	0.002005923
1.458	0.002006577
1.46	0.002007267
1.462	0.002007963
1.464	0.002008656
1.466	0.00200937
1.468	0.002010092
1.47	0.002010751
1.472	0.002011419
1.474	0.002012062
1.476	0.002012667
1.478	0.002013249
1.48	0.002013796
1.482	0.002014303
1.484	0.002014778
1.486	0.002015221
1.488	0.002015655
1.49	0.002016022
1.492	0.002016384
1.494	0.002016753
1.496	0.002017104
1.498	0.00201738
1.5	0.002017629
1.502	0.00201792
1.504	0.002018162
1.506	0.002018342
1.508	0.002018525
1.51	0.002018704
1.512	0.002018851
1.514	0.002018978
1.516	0.002019065
1.518	0.002019165
1.52	0.002019239
1.522	0.0020193
1.524	0.002019353
1.526	0.002019395
1.528	0.002019441
1.53	0.002019474
1.532	0.002019472
1.534	0.002019453
1.536	0.002019445
1.538	0.002019446
1.54	0.002019415
1.542	0.002019375
1.544	0.00201935
1.546	0.002019325
1.548	0.002019263
1.55	0.002019191
1.552	0.002019137
1.554	0.002019081
1.556	0.002019016
1.558	0.002018929
1.56	0.002018861
1.562	0.00201878
1.564	0.002018687
1.566	0.002018575
1.568	0.002018481
1.57	0.002018367
1.572	0.002018254
1.574	0.002018139
1.576	0.002018001
1.578	0.002017881
1.58	0.002017764
1.582	0.002017608
1.584	0.002017475
1.586	0.002017354
1.588	0.002017216
1.59	0.002017069
1.592	0.002016916
1.594	0.002016768
1.596	0.002016635
1.598	0.002016488
1.6	0.002016303
1.602	0.002016193
1.604	0.002016061
1.606	0.002015897
1.608	0.002015777
1.61	0.002015632
1.612	0.002015482
1.614	0.002015344
1.616	0.002015207
1.618	0.002015087
1.62	0.002014958
1.622	0.00201484
1.624	0.002014715
1.626	0.002014584
1.628	0.002014502
1.63	0.002014392
1.632	0.002014284
1.634	0.002014177
1.636	0.002014093
1.638	0.002014026
1.64	0.002013923
1.642	0.002013824
1.644	0.002013789
1.646	0.002013722
1.648	0.002013627
1.65	0.00201355
1.652	0.002013514
1.654	0.002013471
1.656	0.002013384
1.658	0.002013322
1.66	0.002013284
1.662	0.00201323
1.664	0.002013191
1.666	0.002013122
1.668	0.002013096
1.67	0.002013021
1.672	0.002012978
1.674	0.002012946
1.676	0.002012875
1.678	0.00201282
1.68	0.002012776
1.682	0.002012716
1.684	0.002012651
1.686	0.002012608
1.688	0.002012549
1.69	0.002012489
1.692	0.002012412
1.694	0.002012368
1.696	0.002012322
1.698	0.002012257
1.7	0.002012173
1.702	0.002012142
1.704	0.002012097
1.706	0.002012031
1.708	0.002011971
1.71	0.002011942
1.712	0.002011916
1.714	0.002011855
1.716	0.002011809
1.718	0.002011779
1.72	0.002011737
1.722	0.002011728
1.724	0.002011681
1.726	0.002011665
1.728	0.002011666
1.73	0.002011649
1.732	0.002011633
1.734	0.002011613
1.736	0.002011635
1.738	0.002011632
1.74	0.002011636
1.742	0.002011623
1.744	0.002011654
1.746	0.00201166
1.748	0.002011679
1.75	0.002011692
1.752	0.002011738
1.754	0.002011756
1.756	0.0020118
1.758	0.00201182
1.76	0.002011887
1.762	0.002011937
1.764	0.002011976
1.766	0.00201203
1.768	0.002012076
1.77	0.002012133
1.772	0.002012213
1.774	0.002012267
1.776	0.002012352
1.778	0.002012413
1.78	0.002012484
1.782	0.002012544
1.784	0.002012612
1.786	0.002012692
1.788	0.002012799
1.79	0.002012841
1.792	0.002012893
1.794	0.002012975
1.796	0.002013061
1.798	0.002013107
1.8	0.002013147
1.802	0.002013229
1.804	0.002013297
1.806	0.00201336
1.808	0.002013381
1.81	0.00201344
1.812	0.002013477
1.814	0.002013525
1.816	0.002013557
1.818	0.002013592
1.82	0.002013595
1.822	0.00201363
1.824	0.002013658
1.826	0.002013671
1.828	0.002013663
1.83	0.00201369
1.832	0.002013694
1.834	0.002013669
1.836	0.002013675
1.838	0.00201366
1.84	0.002013638
1.842	0.002013605
1.844	0.002013602
1.846	0.002013581
1.848	0.002013537
1.85	0.002013481
1.852	0.002013446
1.854	0.00201342
1.856	0.002013352
1.858	0.002013286
1.86	0.002013249
1.862	0.002013176
1.864	0.002013092
1.866	0.002013039
1.868	0.002012985
1.87	0.002012902
1.872	0.002012825
1.874	0.002012737
1.876	0.002012646
1.878	0.002012595
1.88	0.002012485
1.882	0.002012381
1.884	0.002012277
1.886	0.002012198
1.888	0.002012109
1.89	0.002012022
1.892	0.002011884
1.894	0.002011789
1.896	0.002011695
1.898	0.002011588
1.9	0.002011454
1.902	0.002011361
1.904	0.002011263
1.906	0.002011139
1.908	0.002011023
1.91	0.002010921
1.912	0.002010828
1.914	0.002010699
1.916	0.002010577
1.918	0.00201047
1.92	0.002010357
1.922	0.002010266
1.924	0.002010149
1.926	0.002010022
1.928	0.002009917
1.93	0.002009816
1.932	0.002009708
1.934	0.002009577
1.936	0.002009482
1.938	0.002009385
1.94	0.00200927
1.942	0.002009123
1.944	0.002009047
1.946	0.002008955
1.948	0.002008852
1.95	0.002008711
1.952	0.002008629
1.954	0.002008535
1.956	0.002008426
1.958	0.002008315
1.96	0.002008223
1.962	0.002008108
1.964	0.002008018
1.966	0.002007924
1.968	0.00200784
1.97	0.00200774
1.972	0.002007644
1.974	0.002007557
1.976	0.002007445
1.978	0.002007368
1.98	0.002007303
1.982	0.002007196
1.984	0.002007102
1.986	0.002007027
1.988	0.002006967
1.99	0.002006862
1.992	0.002006765
1.994	0.002006701
1.996	0.00200663
1.998	0.002006529
2	0.002006431
2.002	0.002006391
2.004	0.002006328
2.006	0.002006245
2.008	0.00200615
2.01	0.002006087
2.012	0.002006029
2.014	0.002005955
2.016	0.002005864
2.018	0.002005806
2.02	0.00200574
2.022	0.002005685
2.024	0.002005617
2.026	0.002005529
2.028	0.002005495
2.03	0.00200543
2.032	0.002005356
2.034	0.00200531
2.036	0.002005253
2.038	0.002005194
2.04	0.002005132
2.042	0.002005055
2.044	0.002005027
2.046	0.002004951
2.048	0.002004902
2.05	0.002004832
2.052	0.002004795
2.054	0.002004748
2.056	0.002004679
2.058	0.002004623
2.06	0.002004583
2.062	0.002004525
2.064	0.002004472
2.066	0.002004425
2.068	0.002004361
2.07	0.002004337
2.072	0.002004279
2.074	0.002004229
2.076	0.002004186
2.078	0.002004125
2.08	0.002004099
2.082	0.002004059
2.084	0.002004026
2.086	0.002003964
2.088	0.002003958
2.09	0.00200391
2.092	0.002003835
2.094	0.002003809
2.096	0.002003783
2.098	0.002003721
2.1	0.00200367
2.102	0.002003658
2.104	0.002003618
2.106	0.002003566
2.108	0.002003522
2.11	0.002003498
2.112	0.002003459
2.114	0.002003414
2.116	0.002003388
2.118	0.002003345
2.12	0.002003307
2.122	0.002003288
2.124	0.002003223
2.126	0.002003188
2.128	0.002003152
2.13	0.002003134
2.132	0.00200309
2.134	0.00200306
2.136	0.002003021
2.138	0.002002986
2.14	0.002002941
2.142	0.002002888
2.144	0.002002861
2.146	0.002002834
2.148	0.002002796
2.15	0.002002741
2.152	0.002002726
2.154	0.002002697
2.156	0.002002658
2.158	0.00200258
2.16	0.00200257
2.162	0.002002536
2.164	0.002002515
2.166	0.00200246
2.168	0.002002415
2.17	0.002002373
2.172	0.002002346
2.174	0.002002297
2.176	0.002002254
2.178	0.002002227
2.18	0.002002192
2.182	0.002002163
2.184	0.002002112
2.186	0.002002107
2.188	0.002002062
2.19	0.002002005
2.192	0.002001949
2.194	0.002001948
2.196	0.002001916
2.198	0.002001864
2.2	0.002001817
2.202	0.002001798
2.204	0.002001783
2.206	0.002001728
2.208	0.002001685
2.21	0.002001668
2.212	0.00200163
2.214	0.002001605
2.216	0.002001584
2.218	0.002001553
2.22	0.002001536
2.222	0.002001498
2.224	0.002001481
2.226	0.002001475
2.228	0.002001467
2.23	0.002001457
2.232	0.002001464
2.234	0.00200147
2.236	0.002001505
2.238	0.002001537
2.24	0.002001578
2.242	0.002001623
2.244	0.002001724
2.246	0.002001846
2.248	0.002001988
2.25	0.00200214
2.252	0.002002378
2.254	0.002002642
2.256	0.002002923
2.258	0.002003269
2.26	0.002003679
2.262	0.002004129
2.264	0.002004631
2.266	0.002005181
2.268	0.002005782
2.27	0.002006404
2.272	0.002007049
2.274	0.002007679
2.276	0.002008365
2.278	0.002009053
2.28	0.002009754
2.282	0.002010452
2.284	0.002011115
2.286	0.002011793
2.288	0.00201245
2.29	0.002013049
2.292	0.002013609
2.294	0.002014178
2.296	0.002014699
2.298	0.002015173
2.3	0.002015608
2.302	0.002016057
2.304	0.002016479
2.306	0.002016845
2.308	0.002017211
2.31	0.002017562
2.312	0.00201785
2.314	0.002018149
2.316	0.00201841
2.318	0.002018669
2.32	0.002018879
2.322	0.00201908
2.324	0.002019258
2.326	0.002019403
2.328	0.002019553
2.33	0.00201969
2.332	0.002019771
2.334	0.002019853
2.336	0.002019935
2.338	0.002020012
2.34	0.002020063
2.342	0.002020095
2.344	0.002020145
2.346	0.002020165
2.348	0.002020166
2.35	0.002020151
2.352	0.002020189
2.354	0.002020182
2.356	0.002020152
2.358	0.002020107
2.36	0.002020093
2.362	0.002020062
2.364	0.002020017
2.366	0.002019981
2.368	0.002019926
2.37	0.002019866
2.372	0.002019816
2.374	0.002019734
2.376	0.002019684
2.378	0.002019602
2.38	0.002019546
2.382	0.002019457
2.384	0.002019352
2.386	0.002019274
2.388	0.002019186
2.39	0.002019103
2.392	0.002018961
2.394	0.002018866
2.396	0.002018763
2.398	0.002018641
2.4	0.002018517
2.402	0.00201842
2.404	0.002018317
2.406	0.002018191
2.408	0.002018069
2.41	0.002017938
2.412	0.002017815
2.414	0.002017729
2.416	0.002017594
2.418	0.002017475
2.42	0.002017367
2.422	0.002017252
2.424	0.002017141
2.426	0.002017013
2.428	0.002016908
2.43	0.002016816
2.432	0.002016726
2.434	0.002016617
2.436	0.002016541
2.438	0.002016456
2.44	0.002016362
2.442	0.002016271
2.444	0.002016218
2.446	0.002016147
2.448	0.002016072
2.45	0.002015975
2.452	0.002015923
2.454	0.002015894
2.456	0.002015833
2.458	0.002015773
2.46	0.002015721
2.462	0.002015698
2.464	0.002015665
2.466	0.002015626
2.468	0.002015606
2.47	0.002015575
2.472	0.002015551
2.474	0.002015537
2.476	0.002015493
2.478	0.002015466
2.48	0.002015461
2.482	0.002015427
2.484	0.00201539
2.486	0.002015364
2.488	0.002015343
2.49	0.002015312
2.492	0.002015278
2.494	0.00201524
2.496	0.002015216
2.498	0.002015141
2.5	0.002015096
2.502	0.002015071
2.504	0.002015031
2.506	0.002015001
2.508	0.00201492
2.51	0.002014874
2.512	0.002014821
2.514	0.002014776
2.516	0.002014703
2.518	0.002014672
2.52	0.002014616
2.522	0.00201458
2.524	0.002014521
2.526	0.002014474
2.528	0.002014427
2.53	0.002014391
2.532	0.002014338
2.534	0.002014295
2.536	0.002014264
2.538	0.002014233
2.54	0.002014205
2.542	0.00201414
2.544	0.002014136
2.546	0.002014115
2.548	0.002014077
2.55	0.002014045
2.552	0.002014041
2.554	0.002014036
2.556	0.002014017
2.558	0.002013981
2.56	0.002014005
2.562	0.002013991
2.564	0.002013996
2.566	0.00201399
2.568	0.002014015
2.57	0.002014034
2.572	0.00201406
2.574	0.002014067
2.576	0.002014078
2.578	0.002014109
2.58	0.002014143
2.582	0.002014171
2.584	0.00201419
2.586	0.00201422
2.588	0.002014271
2.59	0.002014311
2.592	0.002014336
2.594	0.002014434
2.596	0.002014456
2.598	0.002014481
2.6	0.002014531
2.602	0.002014604
2.604	0.002014655
2.606	0.002014698
2.608	0.002014742
2.61	0.002014798
2.612	0.002014828
2.614	0.002014897
2.616	0.002014932
2.618	0.002014992
2.62	0.002015034
2.622	0.002015074
2.624	0.002015111
2.626	0.002015147
2.628	0.002015177
2.63	0.002015228
2.632	0.002015253
2.634	0.002015257
2.636	0.002015293
2.638	0.002015318
2.64	0.002015324
2.642	0.002015319
2.644	0.002015342
2.646	0.002015349
2.648	0.002015345
2.65	0.002015306
2.652	0.002015323
2.654	0.002015336
2.656	0.002015303
2.658	0.002015268
2.66	0.002015272
2.662	0.002015231
2.664	0.002015193
2.666	0.002015167
2.668	0.002015135
2.67	0.002015097
2.672	0.002015054
2.674	0.002015015
2.676	0.002014953
2.678	0.002014903
2.68	0.002014858
2.682	0.002014791
2.684	0.002014731
2.686	0.002014683
2.688	0.002014621
2.69	0.002014524
2.692	0.002014441
2.694	0.002014394
2.696	0.002014316
2.698	0.002014255
2.7	0.00201413
2.702	0.002014074
2.704	0.002013994
2.706	0.002013891
2.708	0.002013787
2.71	0.00201371
2.712	0.002013625
2.714	0.002013531
2.716	0.002013422
2.718	0.002013326
2.72	0.002013251
2.722	0.002013142
2.724	0.002013034
2.726	0.002012928
2.728	0.002012838
2.73	0.002012735
2.732	0.002012628
2.734	0.002012515
2.736	0.00201243
2.738	0.002012338
2.74	0.002012224
2.742	0.002012097
2.744	0.002012011
2.746	0.002011913
2.748	0.002011802
2.75	0.002011682
2.752	0.0020116
2.754	0.00201151
2.756	0.002011389
2.758	0.002011268
2.76	0.002011182
2.762	0.002011069
2.764	0.002010983
2.766	0.002010882
2.768	0.002010772
2.77	0.002010657
2.772	0.002010561
2.774	0.002010462
2.776	0.002010369
2.778	0.002010274
2.78	0.002010179
2.782	0.002010079
2.784	0.002009985
2.786	0.002009907
2.788	0.00200982
2.79	0.00200973
2.792	0.002009612
2.794	0.002009535
2.796	0.002009471
2.798	0.002009363
2.8	0.002009264
2.802	0.002009196
2.804	0.002009113
2.806	0.002009022
2.808	0.002008929
2.81	0.002008861
2.812	0.002008778
2.814	0.002008695
2.816	0.002008615
2.818	0.002008547
2.82	0.00200847
2.822	0.0020084
2.824	0.002008299
2.826	0.002008243
2.828	0.002008173
2.83	0.002008111
2.832	0.002008024
2.834	0.002007951
2.836	0.002007898
2.838	0.002007843
2.84	0.002007739
2.842	0.002007662
2.844	0.002007617
2.846	0.002007574
2.848	0.002007489
2.85	0.002007414
2.852	0.002007366
2.854	0.002007314
2.856	0.002007234
2.858	0.00200718
2.86	0.002007128
2.862	0.002007038
2.864	0.002007
2.866	0.002006935
2.868	0.002006873
2.87	0.002006835
2.872	0.002006758
2.874	0.002006716
2.876	0.002006665
2.878	0.002006598
2.88	0.002006555
2.882	0.002006494
2.884	0.002006418
2.886	0.002006394
2.888	0.002006353
2.89	0.002006286
2.892	0.002006207
2.894	0.002006179
2.896	0.002006149
2.898	0.002006081
2.9	0.002005995
2.902	0.002006003
2.904	0.002005955
2.906	0.002005894
2.908	0.002005826
2.91	0.002005804
2.912	0.002005746
2.914	0.002005702
2.916	0.00200564
2.918	0.002005609
2.92	0.00200557
2.922	0.002005521
2.924	0.002005483
2.926	0.002005442
2.928	0.0020054
2.93	0.002005363
2.932	0.002005317
2.934	0.00200527
2.936	0.002005258
2.938	0.002005219
2.94	0.002005161
2.942	0.002005097
2.944	0.002005086
2.946	0.002005068
2.948	0.00200501
2.95	0.002004949
2.952	0.002004943
2.954	0.002004902
2.956	0.002004873
2.958	0.002004815
2.96	0.002004774
2.962	0.002004743
2.964	0.002004708
2.966	0.00200467
2.968	0.002004628
2.97	0.002004584
2.972	0.002004564
2.974	0.002004526
2.976	0.002004495
2.978	0.002004456
2.98	0.002004423
2.982	0.002004366
2.984	0.002004323
2.986	0.00200431
2.988	0.002004269
2.99	0.002004224
2.992	0.002004158
2.994	0.002004146
2.996	0.002004106
2.998	0.002004044
3	0.002004007
3.002	0.002003972
3.004	0.002003951
3.006	0.002003878
3.008	0.002003828
3.01	0.002003799
3.012	0.002003766
3.014	0.002003717
3.016	0.002003664
3.018	0.002003617
3.02	0.002003577
3.022	0.00200353
3.024	0.002003487
3.026	0.002003437
3.028	0.002003398
3.03	0.00200336
3.032	0.002003309
3.034	0.002003259
3.036	0.002003226
3.038	0.002003194
3.04	0.002003143
3.042	0.002003078
3.044	0.002003061
3.046	0.002003041
3.048	0.002002974
3.05	0.002002917
3.052	0.002002896
3.054	0.002002859
3.056	0.002002805
3.058	0.002002764
3.06	0.002002753
3.062	0.002002703
3.064	0.002002675
3.066	0.002002646
3.068	0.002002621
3.07	0.002002591
3.072	0.002002592
3.074	0.002002578
3.076	0.002002584
3.078	0.002002591
3.08	0.002002609
3.082	0.002002647
3.084	0.00200269
3.086	0.002002764
3.088	0.00200289
3.09	0.002002987
3.092	0.002003104
3.094	0.002003308
3.096	0.002003527
3.098	0.002003778
3.1	0.002004053
3.102	0.002004416
3.104	0.002004808
3.106	0.002005248
3.108	0.002005711
3.11	0.002006262
3.112	0.002006814
3.114	0.002007405
3.116	0.002008029
3.118	0.002008652
3.12	0.002009303
3.122	0.002009977
3.124	0.002010645
3.126	0.00201131
3.128	0.002011962
3.13	0.002012605
3.132	0.002013211
3.134	0.00201378
3.136	0.002014363
3.138	0.002014903
3.14	0.002015386
3.142	0.002015837
3.144	0.002016274
3.146	0.002016714
3.148	0.002017099
3.15	0.002017456
3.152	0.002017821
3.154	0.00201816
3.156	0.002018458
3.158	0.002018728
3.16	0.002019013
3.162	0.002019235
3.164	0.002019454
3.166	0.002019649
3.168	0.00201982
3.17	0.002019965
3.172	0.002020096
3.174	0.00202021
3.176	0.002020315
3.178	0.002020413
3.18	0.002020492
3.182	0.002020543
3.184	0.002020579
3.186	0.00202064
3.188	0.002020667
3.19	0.002020693
3.192	0.002020693
3.194	0.002020697
3.196	0.002020708
3.198	0.002020679
3.2	0.002020611
3.202	0.002020624
3.204	0.002020605
3.206	0.002020564
3.208	0.002020512
3.21	0.002020507
3.212	0.00202042
3.214	0.002020351
3.216	0.002020286
3.218	0.002020223
3.22	0.002020151
3.222	0.002020048
3.224	0.002019978
3.226	0.00201989
3.228	0.002019811
3.23	0.002019697
3.232	0.002019619
3.234	0.002019489
3.236	0.002019381
3.238	0.002019283
3.24	0.002019153
3.242	0.002018992
3.244	0.002018909
3.246	0.002018792
3.248	0.002018644
3.25	0.002018509
3.252	0.0020184
3.254	0.002018257
3.256	0.002018127
3.258	0.002017989
3.26	0.002017863
3.262	0.002017743
3.264	0.002017617
3.266	0.002017457
3.268	0.002017353
3.27	0.002017241
3.272	0.00201714
3.274	0.00201701
3.276	0.002016911
3.278	0.00201679
3.28	0.00201669
3.282	0.002016591
3.284	0.002016464
3.286	0.002016415
3.288	0.002016336
3.29	0.002016251
3.292	0.002016141
3.294	0.002016091
3.296	0.00201604
3.298	0.002015967
3.3	0.002015889
3.302	0.002015858
3.304	0.002015815
3.306	0.002015788
3.308	0.00201571
3.31	0.002015683
3.312	0.002015647
3.314	0.002015605
3.316	0.002015567
3.318	0.002015546
3.32	0.002015514
3.322	0.002015467
3.324	0.002015444
3.326	0.002015407
3.328	0.002015384
3.33	0.002015362
3.332	0.002015323
3.334	0.002015261
3.336	0.002015246
3.338	0.002015202
3.34	0.002015158
3.342	0.002015102
3.344	0.002015071
3.346	0.00201503
3.348	0.002014979
3.35	0.002014922
3.352	0.002014889
3.354	0.002014836
3.356	0.002014793
3.358	0.002014734
3.36	0.002014711
3.362	0.002014668
3.364	0.002014624
3.366	0.002014572
3.368	0.002014554
3.37	0.002014518
3.372	0.002014486
3.374	0.00201446
3.376	0.002014441
3.378	0.002014438
3.38	0.00201442
3.382	0.00201438
3.384	0.002014361
3.386	0.002014363
3.388	0.002014365
3.39	0.00201435
3.392	0.00201435
3.394	0.002014367
3.396	0.002014381
3.398	0.002014393
3.4	0.002014386
3.402	0.002014418
3.404	0.002014445
3.406	0.002014461
3.408	0.002014465
3.41	0.002014511
3.412	0.002014558
3.414	0.00201462
3.416	0.002014649
3.418	0.002014696
3.42	0.00201474
3.422	0.002014809
3.424	0.002014864
3.426	0.002014912
3.428	0.002015
3.43	0.002015074
3.432	0.002015121
3.434	0.002015192
3.436	0.002015273
3.438	0.002015343
3.44	0.002015424
3.442	0.002015486
3.444	0.002015574
3.446	0.002015642
3.448	0.002015694
3.45	0.002015751
3.452	0.002015827
3.454	0.002015902
3.456	0.002015958
3.458	0.002016008
3.46	0.002016081
3.462	0.002016123
3.464	0.002016175
3.466	0.002016185
3.468	0.002016259
3.47	0.002016283
3.472	0.002016331
3.474	0.002016359
3.476	0.002016388
3.478	0.002016427
3.48	0.002016431
3.482	0.002016439
3.484	0.002016425
3.486	0.002016449
3.488	0.002016455
3.49	0.002016445
3.492	0.002016413
3.494	0.002016416
3.496	0.002016412
3.498	0.002016368
3.5	0.00201634
3.502	0.002016329
3.504	0.002016307
3.506	0.00201626
3.508	0.002016204
3.51	0.002016174
3.512	0.002016116
3.514	0.002016067
3.516	0.002016012
3.518	0.002015956
3.52	0.002015898
3.522	0.00201584
3.524	0.002015763
3.526	0.002015694
3.528	0.002015619
3.53	0.002015563
3.532	0.00201548
3.534	0.00201537
3.536	0.002015291
3.538	0.00201524
3.54	0.002015133
3.542	0.002015021
3.544	0.002014928
3.546	0.002014852
3.548	0.002014751
3.55	0.002014628
3.552	0.002014551
3.554	0.002014464
3.556	0.002014362
3.558	0.002014241
3.56	0.002014156
3.562	0.002014069
3.564	0.002013951
3.566	0.002013845
3.568	0.002013749
3.57	0.002013645
3.572	0.002013543
3.574	0.00201345
3.576	0.002013327
3.578	0.002013244
3.58	0.002013145
3.582	0.002013042
3.584	0.002012921
3.586	0.002012838
3.588	0.002012748
3.59	0.00201263
3.592	0.002012501
3.594	0.002012433
3.596	0.002012342
3.598	0.00201223
3.6	0.002012119
3.602	0.002012044
3.604	0.002011962
3.606	0.002011848
3.608	0.002011747
3.61	0.002011654
3.612	0.002011566
3.614	0.00201148
3.616	0.002011392
3.618	0.002011305
3.62	0.002011192
3.622	0.002011128
3.624	0.00201102
3.626	0.002010956
3.628	0.002010878
3.63	0.002010789
3.632	0.0020107
3.634	0.002010604
3.636	0.002010559
3.638	0.002010498
3.64	0.002010403
3.642	0.002010305
3.644	0.002010261
3.646	0.002010188
3.648	0.002010096
3.65	0.00201001
3.652	0.002009961
3.654	0.002009892
3.656	0.002009827
3.658	0.002009741
3.66	0.002009685
3.662	0.00200961
3.664	0.002009569
3.666	0.002009494
3.668	0.002009432
3.67	0.002009374
3.672	0.002009311
3.674	0.002009231
3.676	0.002009178
3.678	0.002009133
3.68	0.002009098
3.682	0.002009025
3.684	0.00200895
3.686	0.002008908
3.688	0.00200888
3.69	0.002008799
3.692	0.002008705
3.694	0.002008699
3.696	0.002008638
3.698	0.002008568
3.7	0.002008503
3.702	0.002008463
3.704	0.002008409
3.706	0.002008348
3.708	0.002008293
3.71	0.002008256
3.712	0.002008177
3.714	0.00200813
3.716	0.00200808
3.718	0.002008028
3.72	0.002007977
3.722	0.002007923
3.724	0.002007882
3.726	0.002007817
3.728	0.002007771
3.73	0.00200775
3.732	0.002007677
3.734	0.002007595
3.736	0.002007583
3.738	0.002007534
3.74	0.002007466
3.742	0.002007384
3.744	0.002007363
3.746	0.002007325
3.748	0.002007269
3.75	0.002007194
3.752	0.002007174
3.754	0.002007126
3.756	0.002007066
3.758	0.002007014
3.76	0.00200699
3.762	0.002006925
3.764	0.002006878
3.766	0.002006828
3.768	0.002006782
3.77	0.002006741
3.772	0.002006715
3.774	0.002006647
3.776	0.002006625
3.778	0.002006587
3.78	0.002006546
3.782	0.002006503
3.784	0.002006437
3.786	0.002006399
3.788	0.002006397
3.79	0.002006344
3.792	0.002006276
3.794	0.002006262
3.796	0.002006235
3.798	0.00200619
3.8	0.002006121
3.802	0.002006125
3.804	0.002006093
3.806	0.002006053
3.808	0.002006004
3.81	0.002005992
3.812	0.002005941
3.814	0.002005909
3.816	0.002005873
3.818	0.002005851
3.82	0.002005819
3.822	0.002005779
3.824	0.002005771
3.826	0.002005707
3.828	0.00200568
3.83	0.002005648
3.832	0.002005603
3.834	0.002005555
3.836	0.002005534
3.838	0.00200551
3.84	0.00200544
3.842	0.002005408
3.844	0.002005395
3.846	0.00200536
3.848	0.002005315
3.85	0.002005259
3.852	0.002005245
3.854	0.002005181
3.856	0.002005153
3.858	0.0020051
3.86	0.002005072
3.862	0.002005021
3.864	0.002004981
3.866	0.00200494
3.868	0.002004889
3.87	0.002004857
3.872	0.002004811
3.874	0.002004757
3.876	0.002004704
3.878	0.002004653
3.88	0.002004621
3.882	0.00200457
3.884	0.002004507
3.886	0.002004479
3.888	0.00200444
3.89	0.002004376
3.892	0.002004325
3.894	0.002004274
3.896	0.002004227
3.898	0.002004181
3.9	0.002004107
3.902	0.002004082
3.904	0.002004057
3.906	0.002003995
3.908	0.002003937
3.91	0.002003903
3.912	0.002003856
3.914	0.002003804
3.916	0.00200376
3.918	0.002003724
3.92	0.002003675
3.922	0.002003649
3.924	0.002003613
3.926	0.002003623
3.928	0.002003588
3.93	0.002003578
3.932	0.002003581
3.934	0.002003565
3.936	0.00200359
3.938	0.002003631
3.94	0.002003668
3.942	0.002003736
3.944	0.002003837
3.946	0.002003948
3.948	0.002004104
3.95	0.002004274
3.952	0.002004516
3.954	0.00200478
3.956	0.002005096
3.958	0.002005428
3.96	0.00200584
3.962	0.002006272
3.964	0.002006766
3.966	0.002007293
3.968	0.002007841
3.97	0.002008431
3.972	0.002009046
3.974	0.00200967
3.976	0.002010306
3.978	0.002010979
3.98	0.002011649
3.982	0.002012281
3.984	0.002012917
3.986	0.002013549
3.988	0.002014161
3.99	0.002014712
3.992	0.00201523
3.994	0.002015748
3.996	0.002016244
3.998	0.002016676
4	0.002017081
4.002	0.002017527
4.004	0.002017898
4.006	0.002018269
4.008	0.002018595
4.01	0.002018913
4.012	0.002019225
4.014	0.002019494
4.016	0.002019725
4.018	0.002019956
4.02	0.002020155
4.022	0.002020337
4.024	0.002020485
4.026	0.002020621
4.028	0.002020752
4.03	0.002020871
4.032	0.002020973
4.034	0.002021051
4.036	0.00202113
4.038	0.002021194
4.04	0.002021225
4.042	0.002021244
4.044	0.002021302
4.046	0.00202135
4.048	0.002021344
4.05	0.002021331
4.052	0.002021345
4.054	0.002021318
4.056	0.00202132
4.058	0.002021283
4.06	0.00202126
4.062	0.002021211
4.064	0.002021184
4.066	0.002021122
4.068	0.002021084
4.07	0.002021036
4.072	0.002020967
4.074	0.002020909
4.076	0.002020827
4.078	0.002020763
4.08	0.002020689
4.082	0.002020606
4.084	0.002020518
4.086	0.002020431
4.088	0.00202036
4.09	0.002020252
4.092	0.002020125
4.094	0.002020039
4.096	0.002019922
4.098	0.002019816
4.1	0.002019681
4.102	0.002019598
4.104	0.002019502
4.106	0.002019363
4.108	0.002019238
4.11	0.00201912
4.112	0.002019014
4.114	0.00201889
4.116	0.002018779
4.118	0.002018676
4.12	0.002018559
4.122	0.002018462
4.124	0.002018343
4.126	0.00201825
4.128	0.002018131
4.13	0.002018046
4.132	0.002017946
4.134	0.002017837
4.136	0.002017757
4.138	0.002017697
4.14	0.002017614
4.142	0.002017531
4.144	0.0020175
4.146	0.002017422
4.148	0.002017346
4.15	0.002017301
4.152	0.00201725
4.154	0.00201721
4.156	0.002017159
4.158	0.002017123
4.16	0.002017098
4.162	0.002017062
4.164	0.002017033
4.166	0.002017002
4.168	0.002016988
4.17	0.002016962
4.172	0.002016951
4.174	0.002016938
4.176	0.002016915
4.178	0.0020169
4.18	0.002016879
4.182	0.002016843
4.184	0.002016815
4.186	0.002016807
4.188	0.002016777
4.19	0.002016749
4.192	0.002016701
4.194	0.002016687
4.196	0.00201666
4.198	0.002016605
4.2	0.002016559
4.202	0.002016536
4.204	0.002016499
4.206	0.002016448
4.208	0.002016403
4.21	0.002016357
4.212	0.002016315
4.214	0.002016278
4.216	0.002016237
4.218	0.00201619
4.22	0.002016156
4.222	0.002016119
4.224	0.002016084
4.226	0.002016044
4.228	0.002016012
4.23	0.002015992
4.232	0.002015943
4.234	0.002015931
4.236	0.002015907
4.238	0.002015896
4.24	0.002015865
4.242	0.002015832
4.244	0.002015847
4.246	0.002015837
4.248	0.00201583
4.25	0.002015818
4.252	0.002015825
4.254	0.002015833
4.256	0.002015833
4.258	0.002015824
4.26	0.002015865
4.262	0.00201587
4.264	0.002015892
4.266	0.002015916
4.268	0.002015949
4.27	0.00201596
4.272	0.002016007
4.274	0.002016045
4.276	0.002016078
4.278	0.002016127
4.28	0.002016173
4.282	0.002016209
4.284	0.002016244
4.286	0.002016314
4.288	0.002016366
4.29	0.002016402
4.292	0.00201645
4.294	0.002016527
4.296	0.00201657
4.298	0.002016609
4.3	0.002016653
4.302	0.002016727
4.304	0.002016761
4.306	0.00201682
4.308	0.002016857
4.31	0.002016915
4.312	0.002016939
4.314	0.002016998
4.316	0.00201703
4.318	0.002017067
4.32	0.00201711
4.322	0.00201714
4.324	0.002017157
4.326	0.002017182
4.328	0.002017224
4.33	0.002017251
4.332	0.00201726
4.334	0.002017254
4.336	0.00201729
4.338	0.002017287
4.34	0.002017287
4.342	0.002017257
4.344	0.002017273
4.346	0.002017269
4.348	0.002017242
4.35	0.002017217
4.352	0.002017203
4.354	0.002017189
4.356	0.002017161
4.358	0.002017119
4.36	0.002017077
4.362	0.002017049
4.364	0.002017002
4.366	0.002016967
4.368	0.002016926
4.37	0.002016858
4.372	0.002016806
4.374	0.002016772
4.376	0.002016704
4.378	0.002016646
4.38	0.002016594
4.382	0.002016509
4.384	0.002016437
4.386	0.002016375
4.388	0.002016314
4.39	0.002016225
4.392	0.002016125
4.394	0.002016069
4.396	0.002015992
4.398	0.002015906
4.4	0.002015801
4.402	0.002015732
4.404	0.002015629
4.406	0.002015538
4.408	0.002015444
4.41	0.002015357
4.412	0.002015246
4.414	0.00201516
4.416	0.002015069
4.418	0.002014958
4.42	0.002014858
4.422	0.002014783
4.424	0.002014669
4.426	0.002014567
4.428	0.002014489
4.43	0.002014389
4.432	0.002014276
4.434	0.002014149
4.436	0.002014077
4.438	0.002013999
4.44	0.002013873
4.442	0.002013754
4.444	0.002013677
4.446	0.002013585
4.448	0.002013467
4.45	0.00201336
4.452	0.002013273
4.454	0.002013187
4.456	0.002013091
4.458	0.002012971
4.46	0.00201289
4.462	0.002012799
4.464	0.002012707
4.466	0.0020126
4.468	0.002012512
4.47	0.002012423
4.472	0.002012355
4.474	0.002012247
4.476	0.002012149
4.478	0.002012075
4.48	0.002011987
4.482	0.002011883
4.484	0.002011789
4.486	0.002011736
4.488	0.002011656
4.49	0.002011569
4.492	0.002011451
4.494	0.002011413
4.496	0.002011342
4.498	0.002011256
4.5	0.002011159
4.502	0.002011087
4.504	0.002011016
4.506	0.002010941
4.508	0.002010858
4.51	0.002010785
4.512	0.002010732
4.514	0.002010666
4.516	0.002010587
4.518	0.002010523
4.52	0.002010445
4.522	0.002010397
4.524	0.002010313
4.526	0.002010234
4.528	0.002010195
4.53	0.002010134
4.532	0.002010066
4.534	0.002009986
4.536	0.002009949
4.538	0.002009893
4.54	0.002009831
4.542	0.002009761
4.544	0.002009711
4.546	0.002009662
4.548	0.002009599
4.55	0.002009533
4.552	0.00200949
4.554	0.002009437
4.556	0.002009363
4.558	0.002009323
4.56	0.002009276
4.562	0.00200922
4.564	0.002009165
4.566	0.002009105
4.568	0.002009055
4.57	0.002008999
4.572	0.002008959
4.574	0.002008908
4.576	0.002008847
4.578	0.002008794
4.58	0.002008752
4.582	0.002008686
4.584	0.002008636
4.586	0.002008577
4.588	0.002008531
4.59	0.002008475
4.592	0.002008409
4.594	0.002008375
4.596	0.002008329
4.598	0.00200827
4.6	0.002008211
4.602	0.002008157
4.604	0.002008119
4.606	0.002008069
4.608	0.002008022
4.61	0.002007965
4.612	0.002007918
4.614	0.002007862
4.616	0.002007802
4.618	0.00200777
4.62	0.002007713
4.622	0.002007671
4.624	0.002007613
4.626	0.002007537
4.628	0.002007515
4.63	0.002007475
4.632	0.002007406
4.634	0.002007343
4.636	0.002007302
4.638	0.002007285
4.64	0.002007214
4.642	0.002007135
4.644	0.00200712
4.646	0.002007079
4.648	0.002007012
4.65	0.002006939
4.652	0.002006915
4.654	0.002006861
4.656	0.002006803
4.658	0.002006734
4.66	0.002006709
4.662	0.002006655
4.664	0.002006602
4.666	0.002006552
4.668	0.002006505
4.67	0.002006464
4.672	0.002006426
4.674	0.002006376
4.676	0.002006311
4.678	0.002006282
4.68	0.002006234
4.682	0.002006183
4.684	0.002006118
4.686	0.002006095
4.688	0.002006059
4.69	0.002005999
4.692	0.002005935
4.694	0.002005906
4.696	0.002005861
4.698	0.002005806
4.7	0.002005751
4.702	0.002005736
4.704	0.0020057
4.706	0.002005658
4.708	0.002005616
4.71	0.002005587
4.712	0.002005523
4.714	0.002005488
4.716	0.00200544
4.718	0.002005404
4.72	0.002005373
4.722	0.002005347
4.724	0.002005301
4.726	0.002005261
4.728	0.002005233
4.73	0.002005205
4.732	0.002005148
4.734	0.002005109
4.736	0.002005092
4.738	0.002005066
4.74	0.002005041
4.742	0.00200497
4.744	0.002004961
4.746	0.002004935
4.748	0.002004878
4.75	0.002004843
4.752	0.002004823
4.754	0.00200478
4.756	0.002004741
4.758	0.002004716
4.76	0.0020047
4.762	0.002004649
4.764	0.00200462
4.766	0.002004584
4.768	0.002004547
4.77	0.002004518
4.772	0.002004495
4.774	0.00200444
4.776	0.002004386
4.778	0.002004365
4.78	0.002004332
4.782	0.002004288
4.784	0.002004232
4.786	0.002004219
4.788	0.002004203
4.79	0.002004156
4.792	0.002004079
4.794	0.002004056
4.796	0.00200401
4.798	0.002003977
4.8	0.00200393
4.802	0.002003894
4.804	0.00200385
4.806	0.002003805
4.808	0.002003734
4.81	0.002003713
4.812	0.002003662
4.814	0.002003628
4.816	0.002003582
4.818	0.002003518
4.82	0.002003483
4.822	0.00200345
4.824	0.002003391
4.826	0.002003351
4.828	0.002003322
4.83	0.002003277
4.832	0.00200322
4.834	0.002003161
4.836	0.002003132
4.838	0.002003087
4.84	0.002003033
4.842	0.002002979
4.844	0.002002972
4.846	0.002002945
4.848	0.002002893
4.85	0.002002834
4.852	0.002002803
4.854	0.002002777
4.856	0.002002728
4.858	0.002002726
4.86	0.002002711
4.862	0.002002684
4.864	0.002002668
4.866	0.002002665
4.868	0.002002657
4.87	0.002002674
4.872	0.002002724
4.874	0.002002764
4.876	0.002002809
4.878	0.0020029
4.88	0.002003022
4.882	0.002003137
4.884	0.002003304
4.886	0.002003537
4.888	0.002003802
4.89	0.002004097
4.892	0.002004419
4.894	0.002004839
4.896	0.00200529
4.898	0.002005778
4.9	0.002006318
4.902	0.002006916
4.904	0.002007544
4.906	0.002008177
4.908	0.002008802
4.91	0.002009499
4.912	0.002010198
4.914	0.002010905
4.916	0.002011585
4.918	0.002012268
4.92	0.002012942
4.922	0.002013601
4.924	0.002014213
4.926	0.002014792
4.928	0.002015339
4.93	0.002015865
4.932	0.002016329
4.934	0.002016763
4.936	0.002017216
4.938	0.002017637
4.94	0.002018015
4.942	0.002018348
4.944	0.002018722
4.946	0.002019041
4.948	0.002019321
4.95	0.002019591
4.952	0.002019811
4.954	0.002020032
4.956	0.002020221
4.958	0.002020395
4.96	0.002020549
4.962	0.002020682
4.964	0.002020818
4.966	0.002020911
4.968	0.002021006
4.97	0.002021076
4.972	0.002021144
4.974	0.00202117
4.976	0.002021223
4.978	0.00202127
4.98	0.002021294
4.982	0.002021291
4.984	0.002021281
4.986	0.002021283
4.988	0.002021295
4.99	0.002021264
4.992	0.002021236
4.994	0.00202123
4.996	0.002021195
4.998	0.002021147
5	0.002021088
5.002	0.002021057
5.004	0.002021008
5.006	0.00202094
5.008	0.002020878
5.01	0.002020812
5.012	0.002020742
5.014	0.002020665
5.016	0.002020593
5.018	0.002020512
5.02	0.002020433
5.022	0.002020353
5.024	0.002020262
5.026	0.002020162
5.028	0.00202006
5.03	0.002019991
5.032	0.002019865
5.034	0.002019749
5.036	0.002019668
5.038	0.002019567
5.04	0.002019446
5.042	0.002019312
5.044	0.002019224
5.046	0.002019128
5.048	0.002019008
5.05	0.002018885
5.052	0.00201883
5.054	0.0020187
5.056	0.0020186
5.058	0.0020185
5.06	0.002018415
5.062	0.002018299
5.064	0.002018224
5.066	0.002018149
5.068	0.002018059
5.07	0.002018
5.072	0.00201795
5.074	0.002017866
5.076	0.002017793
5.078	0.002017742
5.08	0.002017703
5.082	0.002017649
5.084	0.002017587
5.086	0.002017552
5.088	0.00201754
5.09	0.002017503
5.092	0.002017462
5.094	0.002017455
5.096	0.002017452
5.098	0.002017421
5.1	0.002017381
5.102	0.002017383
5.104	0.002017367
5.106	0.002017366
5.108	0.002017369
5.11	0.002017371
5.112	0.002017356
5.114	0.002017347
5.116	0.00201734
5.118	0.002017322
5.12	0.002017316
5.122	0.002017315
5.124	0.002017291
5.126	0.002017253
5.128	0.002017239
5.13	0.002017225
5.132	0.00201719
5.134	0.002017155
5.136	0.002017121
5.138	0.002017088
5.14	0.002017075
5.142	0.002017009
5.144	0.002016973
5.146	0.002016932
5.148	0.002016883
5.15	0.002016839
5.152	0.002016814
5.154	0.002016756
5.156	0.002016727
5.158	0.002016662
5.16	0.002016619
5.162	0.002016574
5.164	0.002016543
5.166	0.002016498
5.168	0.002016451
5.17	0.002016432
5.172	0.0020164
5.174	0.002016349
5.176	0.002016326
5.178	0.002016308
5.18	0.002016291
5.182	0.002016253
5.184	0.002016219
5.186	0.002016225
5.188	0.00201623
5.19	0.002016206
5.192	0.002016182
5.194	0.002016182
5.196	0.002016191
5.198	0.002016193
5.2	0.002016185
5.202	0.002016209
5.204	0.002016205
5.206	0.002016227
5.208	0.002016231
5.21	0.002016266
5.212	0.002016287
5.214	0.002016313
5.216	0.002016346
5.218	0.002016375
5.22	0.002016425
5.222	0.002016457
5.224	0.002016495
5.226	0.002016534
5.228	0.002016582
5.23	0.00201662
5.232	0.002016654
5.234	0.002016675
5.236	0.002016741
5.238	0.00201678
5.24	0.002016824
5.242	0.002016858
5.244	0.002016927
5.246	0.002016973
5.248	0.002017011
5.25	0.002017042
5.252	0.0020171
5.254	0.00201714
5.256	0.002017176
5.258	0.002017222
5.26	0.002017232
5.262	0.002017266
5.264	0.002017284
5.266	0.002017319
5.268	0.002017345
5.27	0.002017366
5.272	0.00201739
5.274	0.002017409
5.276	0.002017395
5.278	0.002017403
5.28	0.00201741
5.282	0.002017399
5.284	0.002017373
5.286	0.002017404
5.288	0.002017388
5.29	0.002017351
5.292	0.00201731
5.294	0.002017307
5.296	0.002017293
5.298	0.002017234
5.3	0.002017205
5.302	0.002017196
5.304	0.002017151
5.306	0.002017097
5.308	0.002017047
5.31	0.002017008
5.312	0.002016949
5.314	0.002016899
5.316	0.00201686
5.318	0.00201679
5.32	0.002016719
5.322	0.002016669
5.324	0.002016593
5.326	0.002016535
5.328	0.00201646
5.33	0.002016388
5.332	0.002016288
5.334	0.00201621
5.336	0.002016157
5.338	0.002016084
5.34	0.002016003
5.342	0.002015869
5.344	0.002015808
5.346	0.002015737
5.348	0.002015629
5.35	0.002015525
5.352	0.002015437
5.354	0.002015349
5.356	0.002015256
5.358	0.002015141
5.36	0.002015087
5.362	0.002014956
5.364	0.002014876
5.366	0.002014767
5.368	0.002014672
5.37	0.002014578
5.372	0.002014473
5.374	0.002014374
5.376	0.002014253
5.378	0.002014173
5.38	0.002014092
5.382	0.002013988
5.384	0.002013867
5.386	0.002013784
5.388	0.002013697
5.39	0.002013587
5.392	0.002013449
5.394	0.002013392
5.396	0.002013301
5.398	0.002013198
5.4	0.002013084
5.402	0.002013007
5.404	0.002012921
5.406	0.002012827
5.408	0.002012708
5.41	0.002012652
5.412	0.002012546
5.414	0.00201245
5.416	0.002012355
5.418	0.002012274
5.42	0.00201218
5.422	0.002012106
5.424	0.002012002
5.426	0.002011912
5.428	0.002011849
5.43	0.00201176
5.432	0.002011668
5.434	0.002011571
5.436	0.002011519
5.438	0.002011449
5.44	0.002011355
5.442	0.002011251
5.444	0.00201121
5.446	0.002011121
5.448	0.002011035
5.45	0.00201094
5.452	0.002010891
5.454	0.002010825
5.456	0.002010757
5.458	0.002010667
5.46	0.002010606
5.462	0.002010554
5.464	0.002010485
5.466	0.00201041
5.468	0.00201033
5.47	0.00201026
5.472	0.002010209
5.474	0.002010148
5.476	0.002010063
5.478	0.002010015
5.48	0.002009967
5.482	0.002009885
5.484	0.002009814
5.486	0.002009795
5.488	0.00200972
5.49	0.002009656
5.492	0.002009582
5.494	0.002009543
5.496	0.002009466
5.498	0.002009424
5.5	0.002009356
5.502	0.002009311
5.504	0.002009268
5.506	0.002009206
5.508	0.00200914
5.51	0.002009094
5.512	0.002009036
5.514	0.002008967
5.516	0.002008935
5.518	0.002008869
5.52	0.002008823
5.522	0.002008787
5.524	0.002008713
5.526	0.002008648
5.528	0.002008616
5.53	0.002008577
5.532	0.002008505
5.534	0.002008454
5.536	0.002008419
5.538	0.002008369
5.54	0.0020083
5.542	0.002008253
5.544	0.002008214
5.546	0.002008159
5.548	0.002008109
5.55	0.00200805
5.552	0.002008012
5.554	0.002007963
5.556	0.002007921
5.558	0.002007855
5.56	0.002007817
5.562	0.002007765
5.564	0.002007735
5.566	0.002007667
5.568	0.00200762
5.57	0.002007567
5.572	0.002007523
5.574	0.002007464
5.576	0.002007392
5.578	0.002007367
5.58	0.002007336
5.582	0.002007278
5.584	0.002007215
5.586	0.002007183
5.588	0.002007152
5.59	0.002007094
5.592	0.002007027
5.594	0.002006998
5.596	0.002006954
5.598	0.002006895
5.6	0.00200685
5.602	0.002006814
5.604	0.002006757
5.606	0.002006708
5.608	0.002006642
5.61	0.002006602
5.612	0.002006558
5.614	0.002006517
5.616	0.002006465
5.618	0.00200642
5.62	0.002006396
5.622	0.002006347
5.624	0.002006291
5.626	0.002006237
5.628	0.002006196
5.63	0.002006171
5.632	0.002006112
5.634	0.002006039
5.636	0.002006018
5.638	0.002005982
5.64	0.002005923
5.642	0.002005851
5.644	0.002005834
5.646	0.002005805
5.648	0.002005745
5.65	0.002005688
5.652	0.002005658
5.654	0.002005616
5.656	0.002005581
5.658	0.002005512
5.66	0.002005494
5.662	0.002005441
5.664	0.002005404
5.666	0.002005364
5.668	0.002005327
5.67	0.002005281
5.672	0.002005246
5.674	0.002005202
5.676	0.002005145
5.678	0.002005124
5.68	0.002005104
5.682	0.002005052
5.684	0.002004991
5.686	0.002004975
5.688	0.002004949
5.69	0.002004895
5.692	0.002004829
5.694	0.002004828
5.696	0.002004803
5.698	0.002004748
5.7	0.0020047
5.702	0.002004671
5.704	0.002004648
5.706	0.002004627
5.708	0.002004579
5.71	0.00200455
5.712	0.00200449
5.714	0.002004475
5.716	0.002004444
5.718	0.002004402
5.72	0.002004374
5.722	0.002004357
5.724	0.002004307
5.726	0.002004271
5.728	0.002004239
5.73	0.002004225
5.732	0.002004172
5.734	0.002004117
5.736	0.002004105
5.738	0.002004081
5.74	0.00200405
5.742	0.002003979
5.744	0.00200397
5.746	0.002003929
5.748	0.002003883
5.75	0.002003822
5.752	0.002003794
5.754	0.00200376
5.756	0.002003715
5.758	0.00200367
5.76	0.002003635
5.762	0.002003593
5.764	0.002003562
5.766	0.002003514
5.768	0.002003471
5.77	0.00200345
5.772	0.002003404
5.774	0.002003347
5.776	0.002003284
5.778	0.002003273
5.78	0.002003227
5.782	0.002003167
5.784	0.002003097
5.786	0.002003087
5.788	0.002003052
5.79	0.002003
5.792	0.002002929
5.794	0.00200291
5.796	0.002002866
5.798	0.002002818
5.8	0.002002779
5.802	0.002002747
5.804	0.002002703
5.806	0.002002658
5.808	0.002002619
5.81	0.002002583
5.812	0.002002537
5.814	0.002002503
5.816	0.002002466
5.818	0.002002414
5.82	0.002002391
5.822	0.002002364
5.824	0.002002327
5.826	0.002002291
5.828	0.002002286
5.83	0.002002275
5.832	0.002002244
5.834	0.002002209
5.836	0.002002217
5.838	0.002002225
5.84	0.002002217
5.842	0.002002214
5.844	0.00200226
5.846	0.002002302
5.848	0.002002357
5.85	0.002002423
5.852	0.002002534
5.854	0.00200267
5.856	0.002002835
5.858	0.002003028
5.86	0.002003294
5.862	0.002003584
5.864	0.002003933
5.866	0.002004304
5.868	0.002004757
5.87	0.002005248
5.872	0.002005814
5.874	0.002006384
5.876	0.002006987
5.878	0.002007644
5.88	0.002008318
5.882	0.002008988
5.884	0.002009654
5.886	0.002010392
5.888	0.002011096
5.89	0.002011779
5.892	0.002012442
5.894	0.002013125
5.896	0.002013753
5.898	0.002014345
5.9	0.002014887
5.902	0.002015412
5.904	0.002015908
5.906	0.00201637
5.908	0.0020168
5.91	0.002017201
5.912	0.002017592
5.914	0.002017959
5.916	0.002018283
5.918	0.002018601
5.92	0.00201891
5.922	0.002019191
5.924	0.002019418
5.926	0.002019629
5.928	0.002019829
5.93	0.00202002
5.932	0.002020155
5.934	0.002020273
5.936	0.002020422
5.938	0.002020527
5.94	0.002020588
5.942	0.002020636
5.944	0.00202072
5.946	0.002020775
5.948	0.002020793
5.95	0.002020826
5.952	0.002020841
5.954	0.002020837
5.956	0.00202083
5.958	0.002020824
5.96	0.002020815
5.962	0.002020782
5.964	0.002020752
5.966	0.002020714
5.968	0.002020657
5.97	0.00202062
5.972	0.00202055
5.974	0.002020502
5.976	0.002020417
5.978	0.002020356
5.98	0.002020278
5.982	0.002020193
5.984	0.002020083
5.986	0.002020011
5.988	0.002019914
5.99	0.002019787
5.992	0.002019678
5.994	0.002019576
5.996	0.002019446
5.998	0.002019311
6	0.002019176
6.002	0.002019058
6.004	0.002018913
6.006	0.002018771
6.008	0.002018629
6.01	0.002018487
6.012	0.002018341
6.014	0.002018194
6.016	0.002018043
6.018	0.002017894
6.02	0.00201775
6.022	0.002017607
6.024	0.002017453
6.026	0.002017318
6.028	0.002017175
6.03	0.002017043
6.032	0.002016892
6.034	0.002016734
6.036	0.002016616
6.038	0.0020165
6.04	0.00201636
6.042	0.002016231
6.044	0.002016122
6.046	0.002016011
6.048	0.002015883
6.05	0.002015779
6.052	0.002015684
6.054	0.002015585
6.056	0.002015501
6.058	0.002015414
6.06	0.002015329
6.062	0.002015256
6.064	0.002015162
6.066	0.002015112
6.068	0.002015042
6.07	0.002014991
6.072	0.002014933
6.074	0.002014871
6.076	0.002014824
6.078	0.002014772
6.08	0.002014737
6.082	0.002014673
6.084	0.002014596
6.086	0.002014573
6.088	0.002014548
6.09	0.002014492
6.092	0.002014444
6.094	0.002014395
6.096	0.002014345
6.098	0.002014295
6.1	0.002014237
6.102	0.002014186
6.104	0.002014136
6.106	0.002014108
6.108	0.002014045
6.11	0.002013999
6.112	0.002013939
6.114	0.002013905
6.116	0.002013878
6.118	0.002013832
6.12	0.002013794
6.122	0.002013763
6.124	0.002013723
6.126	0.002013682
6.128	0.002013665
6.13	0.002013647
6.132	0.002013617
6.134	0.002013582
6.136	0.002013587
6.138	0.002013577
6.14	0.002013563
6.142	0.002013537
6.144	0.002013563
6.146	0.002013567
6.148	0.002013573
6.15	0.002013584
6.152	0.002013601
6.154	0.002013614
6.156	0.002013633
6.158	0.002013664
6.16	0.002013695
6.162	0.002013745
6.164	0.00201379
6.166	0.002013831
6.168	0.002013864
6.17	0.002013919
6.172	0.002014001
6.174	0.002014046
6.176	0.002014108
6.178	0.002014173
6.18	0.002014285
6.182	0.002014327
6.184	0.002014378
6.186	0.002014465
6.188	0.00201456
6.19	0.002014626
6.192	0.002014689
6.194	0.002014777
6.196	0.002014871
6.198	0.002014961
6.2	0.00201503
6.202	0.002015115
6.204	0.002015195
6.206	0.002015271
6.208	0.002015347
6.21	0.002015416
6.212	0.002015491
6.214	0.002015563
6.216	0.002015614
6.218	0.002015675
6.22	0.002015733
6.222	0.002015796
6.224	0.002015842
6.226	0.002015869
6.228	0.00201592
6.23	0.002015956
6.232	0.002015982
6.234	0.002016004
6.236	0.002016043
6.238	0.002016075
6.24	0.002016085
6.242	0.002016078
6.244	0.002016102
6.246	0.002016084
6.248	0.00201606
6.25	0.002016054
6.252	0.002016045
6.254	0.00201602
6.256	0.002016016
6.258	0.00201598
6.26	0.002015945
6.262	0.002015909
6.264	0.002015872
6.266	0.002015814
6.268	0.002015771
6.27	0.002015714
6.272	0.002015682
6.274	0.002015628
6.276	0.002015556
6.278	0.0020155
6.28	0.002015433
6.282	0.002015364
6.284	0.002015256
6.286	0.002015204
6.288	0.002015133
6.29	0.002015033
6.292	0.002014932
6.294	0.002014851
6.296	0.002014765
6.298	0.002014668
6.3	0.002014558
6.302	0.002014477
6.304	0.002014367
6.306	0.002014258
6.308	0.002014157
6.31	0.002014064
6.312	0.002013948
6.314	0.002013829
6.316	0.002013731
6.318	0.002013627
6.32	0.00201352
6.322	0.002013414
6.324	0.00201328
6.326	0.002013168
6.328	0.002013058
6.33	0.002012974
6.332	0.002012841
6.334	0.002012708
6.336	0.00201262
6.338	0.002012517
6.34	0.002012409
6.342	0.002012269
6.344	0.002012179
6.346	0.002012079
6.348	0.002011956
6.35	0.002011835
6.352	0.002011739
6.354	0.002011627
6.356	0.002011527
6.358	0.002011422
6.36	0.002011333
6.362	0.002011214
6.364	0.002011122
6.366	0.002011011
6.368	0.002010909
6.37	0.002010802
6.372	0.002010722
6.374	0.002010622
6.376	0.002010517
6.378	0.002010448
6.38	0.002010368
6.382	0.002010265
6.384	0.002010172
6.386	0.002010092
6.388	0.002010001
6.39	0.002009894
6.392	0.002009797
6.394	0.002009726
6.396	0.002009649
6.398	0.002009571
6.4	0.002009461
6.402	0.002009407
6.404	0.002009316
6.406	0.002009238
6.408	0.002009155
6.41	0.002009087
6.412	0.002009009
6.414	0.002008935
6.416	0.002008851
6.418	0.00200878
6.42	0.002008724
6.422	0.002008659
6.424	0.00200859
6.426	0.002008504
6.428	0.002008457
6.43	0.002008397
6.432	0.002008336
6.434	0.002008225
6.436	0.002008189
6.438	0.002008132
6.44	0.002008072
6.442	0.002007985
6.444	0.002007945
6.446	0.00200788
6.448	0.002007802
6.45	0.002007767
6.452	0.002007696
6.454	0.002007646
6.456	0.00200759
6.458	0.00200751
6.46	0.002007479
6.462	0.002007407
6.464	0.002007352
6.466	0.00200728
6.468	0.002007237
6.47	0.002007183
6.472	0.00200714
6.474	0.002007068
6.476	0.002006998
6.478	0.002006984
6.48	0.002006926
6.482	0.002006854
6.484	0.002006768
6.486	0.002006767
6.488	0.002006703
6.49	0.002006638
6.492	0.00200657
6.494	0.002006543
6.496	0.002006484
6.498	0.002006432
6.5	0.002006362
6.502	0.002006314
6.504	0.002006268
6.506	0.002006209
6.508	0.002006158
6.51	0.002006107
6.512	0.002006058
6.514	0.002006007
6.516	0.002005946
6.518	0.002005887
6.52	0.002005867
6.522	0.002005812
6.524	0.002005762
6.526	0.002005703
6.528	0.002005657
6.53	0.002005618
6.532	0.002005549
6.534	0.002005472
6.536	0.002005447
6.538	0.00200541
6.54	0.002005356
6.542	0.002005281
6.544	0.002005252
6.546	0.002005203
6.548	0.002005153
6.55	0.002005095
6.552	0.002005044
6.554	0.002004996
6.556	0.002004965
6.558	0.002004921
6.56	0.002004868
6.562	0.002004805
6.564	0.002004768
6.566	0.002004735
6.568	0.002004673
6.57	0.002004622
6.572	0.0020046
6.574	0.00200455
6.576	0.002004501
6.578	0.002004469
6.58	0.002004424
6.582	0.002004381
6.584	0.002004324
6.586	0.002004307
6.588	0.002004285
6.59	0.002004218
6.592	0.002004164
6.594	0.00200414
6.596	0.002004107
6.598	0.00200405
6.6	0.002004016
6.602	0.002003989
6.604	0.002003959
6.606	0.00200392
6.608	0.002003879
6.61	0.002003837
6.612	0.002003804
6.614	0.002003774
6.616	0.002003745
6.618	0.002003717
6.62	0.00200369
6.622	0.002003658
6.624	0.002003625
6.626	0.002003573
6.628	0.002003562
6.63	0.002003544
6.632	0.002003496
6.634	0.002003455
6.636	0.002003442
6.638	0.002003426
6.64	0.00200338
6.642	0.002003331
6.644	0.002003314
6.646	0.002003298
6.648	0.002003271
6.65	0.002003228
6.652	0.002003213
6.654	0.002003179
6.656	0.00200315
6.658	0.002003116
6.66	0.002003078
6.662	0.002003043
6.664	0.00200303
6.666	0.002003018
6.668	0.002002965
6.67	0.002002949
6.672	0.002002925
6.674	0.002002887
6.676	0.002002838
6.678	0.002002822
6.68	0.002002801
6.682	0.00200275
6.684	0.002002705
6.686	0.002002698
6.688	0.002002675
6.69	0.00200264
6.692	0.002002581
6.694	0.002002555
6.696	0.002002528
6.698	0.002002501
6.7	0.002002446
6.702	0.002002412
6.704	0.002002387
6.706	0.002002355
6.708	0.002002329
6.71	0.002002284
6.712	0.002002253
6.714	0.002002221
6.716	0.002002169
6.718	0.002002147
6.72	0.002002128
6.722	0.002002104
6.724	0.002002066
6.726	0.002002022
6.728	0.002002016
6.73	0.002001993
6.732	0.002001953
6.734	0.002001905
6.736	0.002001901
6.738	0.0020019
6.74	0.002001861
6.742	0.002001818
6.744	0.002001819
6.746	0.002001808
6.748	0.002001781
6.75	0.002001777
6.752	0.002001779
6.754	0.002001764
6.756	0.002001803
6.758	0.002001814
6.76	0.002001865
6.762	0.002001912
6.764	0.002001973
6.766	0.002002059
6.768	0.002002162
6.77	0.002002311
6.772	0.002002507
6.774	0.002002715
6.776	0.002002966
6.778	0.002003296
6.78	0.002003673
6.782	0.002004076
6.784	0.002004532
6.786	0.00200506
6.788	0.002005637
6.79	0.002006242
6.792	0.002006843
6.794	0.00200754
6.796	0.002008188
6.798	0.002008874
6.8	0.002009556
6.802	0.002010279
6.804	0.002010964
6.806	0.002011644
6.808	0.002012317
6.81	0.002012962
6.812	0.002013586
6.814	0.002014167
6.816	0.002014723
6.818	0.00201524
6.82	0.002015722
6.822	0.002016191
6.824	0.002016609
6.826	0.002016997
6.828	0.002017376
6.83	0.00201776
6.832	0.002018077
6.834	0.002018377
6.836	0.002018682
6.838	0.002018951
6.84	0.002019185
6.842	0.002019383
6.844	0.002019583
6.846	0.002019757
6.848	0.002019902
6.85	0.002020034
6.852	0.002020178
6.854	0.002020285
6.856	0.00202038
6.858	0.002020437
6.86	0.002020499
6.862	0.002020531
6.864	0.002020566
6.866	0.002020582
6.868	0.00202059
6.87	0.002020604
6.872	0.002020617
6.874	0.002020595
6.876	0.002020562
6.878	0.002020568
6.88	0.002020535
6.882	0.002020487
6.884	0.002020436
6.886	0.002020397
6.888	0.002020345
6.89	0.002020301
6.892	0.002020219
6.894	0.002020164
6.896	0.002020092
6.898	0.002019996
6.9	0.002019896
6.902	0.002019831
6.904	0.002019733
6.906	0.002019642
6.908	0.002019536
6.91	0.002019424
6.912	0.002019308
6.914	0.002019201
6.916	0.002019087
6.918	0.002018945
6.92	0.002018835
6.922	0.002018712
6.924	0.002018575
6.926	0.002018426
6.928	0.002018316
6.93	0.002018196
6.932	0.002018048
6.934	0.002017894
6.936	0.002017789
6.938	0.002017669
6.94	0.002017509
6.942	0.00201738
6.944	0.002017261
6.946	0.002017135
6.948	0.002017008
6.95	0.002016894
6.952	0.002016784
6.954	0.002016656
6.956	0.002016549
6.958	0.002016439
6.96	0.002016345
6.962	0.002016245
6.964	0.002016158
6.966	0.002016049
6.968	0.002015965
6.97	0.002015906
6.972	0.002015835
6.974	0.002015768
6.976	0.002015695
6.978	0.002015648
6.98	0.002015605
6.982	0.002015542
6.984	0.00201549
6.986	0.00201547
6.988	0.002015437
6.99	0.002015393
6.992	0.002015339
6.994	0.002015339
6.996	0.002015316
6.998	0.002015279
7	0.002015236
7.002	0.002015236
7.004	0.002015202
7.006	0.002015175
7.008	0.002015157
7.01	0.002015129
7.012	0.002015091
7.014	0.002015074
7.016	0.002015028
7.018	0.002014989
7.02	0.002014968
7.022	0.002014933
7.024	0.002014874
7.026	0.002014838
7.028	0.002014808
7.03	0.002014772
7.032	0.002014701
7.034	0.002014642
7.036	0.002014628
7.038	0.002014603
7.04	0.002014552
7.042	0.002014485
7.044	0.002014458
7.046	0.002014423
7.048	0.002014379
7.05	0.002014343
7.052	0.002014311
7.054	0.00201427
7.056	0.002014251
7.058	0.002014207
7.06	0.002014165
7.062	0.002014156
7.064	0.002014131
7.066	0.002014113
7.068	0.002014093
7.07	0.002014095
7.072	0.002014093
7.074	0.002014071
7.076	0.002014064
7.078	0.002014067
7.08	0.002014076
7.082	0.002014077
7.084	0.002014055
7.086	0.002014092
7.088	0.002014131
7.09	0.002014132
7.092	0.002014139
7.094	0.002014184
7.096	0.002014215
7.098	0.002014237
7.1	0.002014264
7.102	0.002014309
7.104	0.00201434
7.106	0.002014388
7.108	0.002014433
7.11	0.002014471
7.112	0.002014512
7.114	0.002014578
7.116	0.002014617
7.118	0.002014674
7.12	0.002014721
7.122	0.002014792
7.124	0.002014846
7.126	0.002014868
7.128	0.002014944
7.13	0.002014988
7.132	0.002015024
7.134	0.002015079
7.136	0.002015148
7.138	0.002015203
7.14	0.002015229
7.142	0.002015251
7.144	0.002015317
7.146	0.002015356
7.148	0.002015385
7.15	0.002015401
7.152	0.002015434
7.154	0.002015451
7.156	0.002015487
7.158	0.002015495
7.16	0.002015507
7.162	0.002015505
7.164	0.002015525
7.166	0.002015509
7.168	0.002015501
7.17	0.002015507
7.172	0.002015509
7.174	0.00201548
7.176	0.002015447
7.178	0.002015429
7.18	0.002015414
7.182	0.002015384
7.184	0.002015327
7.186	0.002015317
7.188	0.002015287
7.19	0.002015235
7.192	0.002015172
7.194	0.00201514
7.196	0.002015081
7.198	0.002015026
7.2	0.002014958
7.202	0.002014894
7.204	0.00201481
7.206	0.002014752
7.208	0.002014673
7.21	0.002014594
7.212	0.002014517
7.214	0.002014439
7.216	0.002014355
7.218	0.002014258
7.22	0.002014165
7.222	0.002014092
7.224	0.002014004
7.226	0.0020139
7.228	0.002013813
7.23	0.002013717
7.232	0.00201362
7.234	0.002013489
7.236	0.002013417
7.238	0.002013321
7.24	0.002013197
7.242	0.002013062
7.244	0.002012976
7.246	0.002012854
7.248	0.002012739
7.25	0.002012648
7.252	0.002012572
7.254	0.002012444
7.256	0.002012331
7.258	0.002012219
7.26	0.002012115
7.262	0.002012012
7.264	0.002011909
7.266	0.002011801
7.268	0.002011679
7.27	0.002011575
7.272	0.002011472
7.274	0.00201135
7.276	0.002011232
7.278	0.002011148
7.28	0.002011044
7.282	0.002010925
7.284	0.002010794
7.286	0.002010703
7.288	0.002010622
7.29	0.002010492
7.292	0.002010378
7.294	0.002010299
7.296	0.002010191
7.298	0.0020101
7.3	0.002009981
7.302	0.002009882
7.304	0.002009788
7.306	0.002009731
7.308	0.002009597
7.31	0.002009514
7.312	0.002009412
7.314	0.00200933
7.316	0.00200923
7.318	0.002009134
7.32	0.002009056
7.322	0.002008975
7.324	0.002008884
7.326	0.002008768
7.328	0.002008715
7.33	0.002008634
7.332	0.00200854
7.334	0.002008448
7.336	0.002008376
7.338	0.00200831
7.34	0.002008232
7.342	0.002008141
7.344	0.002008075
7.346	0.002007992
7.348	0.002007922
7.35	0.002007843
7.352	0.002007776
7.354	0.002007695
7.356	0.002007633
7.358	0.002007549
7.36	0.002007485
7.362	0.002007416
7.364	0.002007359
7.366	0.002007288
7.368	0.002007211
7.37	0.002007155
7.372	0.002007032
7.374	0.002007032
7.376	0.002006914
7.378	0.002006857
7.38	0.002006857
7.382	0.00200679
7.384	0.002006723
7.386	0.002006679
7.388	0.002006622
7.39	0.002006533
7.392	0.002006462
7.394	0.002006436
7.396	0.002006376
7.398	0.00200631
7.4	0.002006252
7.402	0.002006141
7.404	0.002006088
7.406	0.002006088
7.408	0.002005963
7.41	0.002005914
7.412	0.002005914
7.414	0.002005872
7.416	0.002005803
7.418	0.002005757
7.42	0.002005708
7.422	0.002005664
7.424	0.002005604
7.426	0.002005539
7.428	0.0020055
7.43	0.002005396
7.432	0.002005309
7.434	0.002005283
7.436	0.002005252
7.438	0.002005189
7.44	0.002005189
7.442	0.002005119
7.444	0.002005096
7.446	0.002004997
7.448	0.002004936
7.45	0.002004902
7.452	0.002004842
7.454	0.002004802
7.456	0.002004802
7.458	0.00200475
7.46	0.002004666
7.462	0.002004617
7.464	0.002004562
7.466	0.002004511
7.468	0.002004482
7.47	0.002004432
7.472	0.002004382
7.474	0.002004329
7.476	0.002004287
7.478	0.002004247
7.48	0.002004195
7.482	0.002004132
7.484	0.002004109
7.486	0.002004109
7.488	0.002004039
7.49	0.002003958
7.492	0.002003929
7.494	0.002003877
7.496	0.002003838
7.498	0.002003779
7.5	0.002003764
7.502	0.002003709
7.504	0.002003678
7.506	0.002003629
7.508	0.002003605
7.51	0.002003551
7.512	0.002003522
7.514	0.002003478
7.516	0.002003419
7.518	0.002003404
7.52	0.002003387
7.522	0.002003334
7.524	0.002003278
7.526	0.002003269
7.528	0.002003237
7.53	0.002003191
7.532	0.002003136
7.534	0.002003142
7.536	0.002003096
7.538	0.002003061
7.54	0.002003028
7.542	0.002002996
7.544	0.002002953
7.546	0.002002924
7.548	0.002002873
7.55	0.002002848
7.552	0.002002835
7.554	0.002002817
7.556	0.002002776
7.558	0.002002755
7.56	0.002002728
7.562	0.002002703
7.564	0.002002663
7.566	0.002002634
7.568	0.002002619
7.57	0.002002587
7.572	0.002002554
7.574	0.002002524
7.576	0.0020025
7.578	0.002002478
7.58	0.002002455
7.582	0.002002409
7.584	0.002002417
7.586	0.002002396
7.588	0.002002359
7.59	0.002002307
7.592	0.002002302
7.594	0.002002268
7.596	0.002002251
7.598	0.002002219
7.6	0.002002196
7.602	0.002002169
7.604	0.002002149
7.606	0.002002118
7.608	0.002002093
7.61	0.002002081
7.612	0.002002046
7.614	0.002002015
7.616	0.002001981
7.618	0.002001968
7.62	0.002001938
7.622	0.002001914
7.624	0.002001863
7.626	0.002001862
7.628	0.002001855
7.63	0.002001811
7.632	0.002001772
7.634	0.00200176
7.636	0.002001723
7.638	0.002001699
7.64	0.002001663
7.642	0.002001656
7.644	0.00200163
7.646	0.002001592
7.648	0.002001566
7.65	0.002001572
7.652	0.002001542
7.654	0.002001511
7.656	0.002001487
7.658	0.002001458
7.66	0.002001425
7.662	0.002001423
7.664	0.002001389
7.666	0.002001358
7.668	0.002001378
7.67	0.00200137
7.672	0.002001333
7.674	0.002001295
7.676	0.002001293
7.678	0.002001286
7.68	0.002001267
7.682	0.002001236
7.684	0.002001261
7.686	0.002001271
7.688	0.002001247
7.69	0.002001231
7.692	0.002001272
7.694	0.002001295
7.696	0.002001333
7.698	0.002001374
7.7	0.002001454
7.702	0.002001539
7.704	0.002001646
7.706	0.002001773
7.708	0.002001966
7.71	0.002002165
7.712	0.002002432
7.714	0.00200274
7.716	0.002003112
7.718	0.002003538
7.72	0.002004001
7.722	0.002004524
7.724	0.002005094
7.726	0.002005721
7.728	0.002006417
7.73	0.002007046
7.732	0.002007716
7.734	0.002008427
7.736	0.00200913
7.738	0.002009828
7.74	0.002010519
7.742	0.002011222
7.744	0.002011897
7.746	0.002012545
7.748	0.002013142
7.75	0.002013767
7.752	0.002014317
7.754	0.002014833
7.756	0.002015325
7.758	0.002015761
7.76	0.002016193
7.762	0.002016594
7.764	0.002016973
7.766	0.002017315
7.768	0.002017661
7.77	0.00201798
7.772	0.002018243
7.774	0.002018494
7.776	0.002018751
7.778	0.002018983
7.78	0.002019158
7.782	0.002019312
7.784	0.002019476
7.786	0.002019616
7.788	0.002019725
7.79	0.002019792
7.792	0.002019877
7.794	0.002019951
7.796	0.002019999
7.798	0.002020038
7.8	0.002020074
7.802	0.002020078
7.804	0.002020082
7.806	0.002020097
7.808	0.002020094
7.81	0.002020059
7.812	0.002020038
7.814	0.002020003
7.816	0.002019995
7.818	0.002019944
7.82	0.002019896
7.822	0.002019831
7.824	0.002019763
7.826	0.002019702
7.828	0.002019647
7.83	0.002019571
7.832	0.00201945
7.834	0.002019392
7.836	0.002019287
7.838	0.002019195
7.84	0.00201907
7.842	0.002018993
7.844	0.002018876
7.846	0.002018754
7.848	0.002018638
7.85	0.002018492
7.852	0.002018363
7.854	0.002018234
7.856	0.002018081
7.858	0.002017943
7.86	0.002017797
7.862	0.002017655
7.864	0.002017521
7.866	0.002017347
7.868	0.002017195
7.87	0.002017065
7.872	0.00201691
7.874	0.002016757
7.876	0.002016623
7.878	0.002016484
7.88	0.002016337
7.882	0.002016179
7.884	0.002016052
7.886	0.002015934
7.888	0.002015784
7.89	0.002015632
7.892	0.002015519
7.894	0.002015399
7.896	0.00201527
7.898	0.00201515
7.9	0.002015053
7.902	0.00201494
7.904	0.002014846
7.906	0.002014738
7.908	0.002014664
7.91	0.002014558
7.912	0.002014481
7.914	0.002014409
7.916	0.002014333
7.918	0.002014285
7.92	0.002014214
7.922	0.002014141
7.924	0.00201407
7.926	0.002014031
7.928	0.002013999
7.93	0.002013935
7.932	0.002013866
7.934	0.002013846
7.936	0.002013805
7.938	0.002013751
7.94	0.002013684
7.942	0.002013667
7.944	0.002013631
7.946	0.002013593
7.948	0.002013546
7.95	0.002013495
7.952	0.002013448
7.954	0.0020134
7.956	0.002013346
7.958	0.002013284
7.96	0.002013243
7.962	0.002013197
7.964	0.002013134
7.966	0.002013072
7.968	0.002013053
7.97	0.002013002
7.972	0.002012926
7.974	0.002012864
7.976	0.002012841
7.978	0.002012797
7.98	0.002012737
7.982	0.002012676
7.984	0.002012662
7.986	0.002012637
7.988	0.002012578
7.99	0.002012528
7.992	0.002012519
7.994	0.002012459
7.996	0.002012449
7.998	0.002012412
8	0.002012406
8.002	0.002012398
8.004	0.002012373
8.006	0.00201236
8.008	0.002012365
8.01	0.002012361
8.012	0.002012386
8.014	0.002012371
8.016	0.002012397
8.018	0.002012415
8.02	0.002012479
8.022	0.002012454
8.024	0.002012461
8.026	0.002012507
8.028	0.00201254
8.03	0.002012559
8.032	0.002012586
8.034	0.002012659
8.036	0.002012716
8.038	0.002012752
8.04	0.002012777
8.042	0.002012856
8.044	0.002012903
8.046	0.002012958
8.048	0.002013027
8.05	0.002013107
8.052	0.002013174
8.054	0.002013237
8.056	0.002013305
8.058	0.002013373
8.06	0.002013443
8.062	0.002013507
8.064	0.002013588
8.066	0.002013648
8.068	0.002013722
8.07	0.002013795
8.072	0.002013861
8.074	0.002013902
8.076	0.002013986
8.078	0.002014049
8.08	0.002014093
8.082	0.002014119
8.084	0.002014196
8.086	0.00201423
8.088	0.00201427
8.09	0.002014294
8.092	0.00201433
8.094	0.002014357
8.096	0.002014376
8.098	0.002014387
8.1	0.002014407
8.102	0.002014401
8.104	0.002014408
8.106	0.002014415
8.108	0.002014392
8.11	0.002014387
8.112	0.002014374
8.114	0.002014348
8.116	0.002014322
8.118	0.002014302
8.12	0.002014276
8.122	0.002014217
8.124	0.002014166
8.126	0.002014139
8.128	0.002014091
8.13	0.002014043
8.132	0.002013962
8.134	0.002013923
8.136	0.002013867
8.138	0.002013783
8.14	0.002013704
8.142	0.002013654
8.144	0.002013565
8.146	0.002013475
8.148	0.002013383
8.15	0.00201331
8.152	0.002013216
8.154	0.002013128
8.156	0.002013042
8.158	0.002012937
8.16	0.002012829
8.162	0.002012745
8.164	0.002012633
8.166	0.002012527
8.168	0.002012423
8.17	0.002012336
8.172	0.002012209
8.174	0.002012089
8.176	0.002012006
8.178	0.002011913
8.18	0.002011786
8.182	0.002011652
8.184	0.002011577
8.186	0.002011469
8.188	0.002011353
8.19	0.002011226
8.192	0.002011112
8.194	0.002011013
8.196	0.002010898
8.198	0.002010786
8.2	0.002010681
8.202	0.002010555
8.204	0.002010451
8.206	0.002010336
8.208	0.002010234
8.21	0.002010115
8.212	0.00201001
8.214	0.002009899
8.216	0.002009787
8.218	0.002009704
8.22	0.002009586
8.222	0.002009469
8.224	0.002009358
8.226	0.002009283
8.228	0.002009181
8.23	0.002009048
8.232	0.002008938
8.234	0.002008866
8.236	0.002008773
8.238	0.002008662
8.24	0.002008565
8.242	0.00200847
8.244	0.002008367
8.246	0.00200826
8.248	0.002008171
8.25	0.002008086
8.252	0.002008001
8.254	0.002007916
8.256	0.002007813
8.258	0.002007722
8.26	0.002007624
8.262	0.002007569
8.264	0.002007472
8.266	0.00200738
8.268	0.002007311
8.27	0.002007241
8.272	0.00200716
8.274	0.00200707
8.276	0.002007001
8.278	0.00200693
8.28	0.002006841
8.282	0.00200675
8.284	0.002006689
8.286	0.002006629
8.288	0.002006557
8.29	0.002006474
8.292	0.002006415
8.294	0.002006318
8.296	0.00200625
8.298	0.002006188
8.3	0.002006127
8.302	0.002006056
8.304	0.002006006
8.306	0.002005941
8.308	0.002005872
8.31	0.002005809
8.312	0.002005748
8.314	0.002005701
8.316	0.002005625
8.318	0.002005575
8.32	0.002005532
8.322	0.002005458
8.324	0.002005382
8.326	0.002005352
8.328	0.002005328
8.33	0.002005237
8.332	0.002005159
8.334	0.002005113
8.336	0.002005077
8.338	0.002005014
8.34	0.002004946
8.342	0.002004915
8.344	0.002004858
8.346	0.002004802
8.348	0.002004738
8.35	0.002004698
8.352	0.002004636
8.354	0.002004589
8.356	0.002004542
8.358	0.002004494
8.36	0.002004445
8.362	0.002004395
8.364	0.002004345
8.366	0.00200429
8.368	0.002004261
8.37	0.002004223
8.372	0.002004171
8.374	0.002004111
8.376	0.002004077
8.378	0.002004056
8.38	0.002003989
8.382	0.002003926
8.384	0.002003905
8.386	0.002003874
8.388	0.002003821
8.39	0.002003767
8.392	0.002003735
8.394	0.002003693
8.396	0.002003647
8.398	0.002003621
8.4	0.002003588
8.402	0.002003547
8.404	0.002003506
8.406	0.002003475
8.408	0.002003439
8.41	0.002003409
8.412	0.002003372
8.414	0.002003326
8.416	0.002003281
8.418	0.002003262
8.42	0.002003247
8.422	0.002003197
8.424	0.002003156
8.426	0.002003142
8.428	0.002003116
8.43	0.002003103
8.432	0.002003046
8.434	0.002003011
8.436	0.002002976
8.438	0.002002934
8.44	0.002002898
8.442	0.002002864
8.444	0.002002824
8.446	0.002002812
8.448	0.002002777
8.45	0.002002765
8.452	0.00200274
8.454	0.002002705
8.456	0.002002691
8.458	0.002002646
8.46	0.002002624
8.462	0.0020026
8.464	0.002002559
8.466	0.002002538
8.468	0.00200252
8.47	0.00200248
8.472	0.002002441
8.474	0.002002404
8.476	0.00200239
8.478	0.002002367
8.48	0.002002335
8.482	0.002002281
8.484	0.002002276
8.486	0.00200225
8.488	0.002002209
8.49	0.002002157
8.492	0.002002152
8.494	0.002002114
8.496	0.002002089
8.498	0.002002044
8.5	0.002002023
8.502	0.002001996
8.504	0.002001963
8.506	0.00200193
8.508	0.002001893
8.51	0.002001864
8.512	0.002001847
8.514	0.002001818
8.516	0.002001777
8.518	0.002001759
8.52	0.002001746
8.522	0.002001713
8.524	0.002001666
8.526	0.002001649
8.528	0.002001634
8.53	0.00200159
8.532	0.002001551
8.534	0.002001542
8.536	0.002001529
8.538	0.00200149
8.54	0.002001464
8.542	0.002001439
8.544	0.002001439
8.546	0.002001408
8.548	0.002001391
8.55	0.002001382
8.552	0.002001386
8.554	0.002001372
8.556	0.002001369
8.558	0.002001372
8.56	0.00200137
8.562	0.002001397
8.564	0.002001425
8.566	0.002001445
8.568	0.002001527
8.57	0.002001595
8.572	0.002001684
8.574	0.002001772
8.576	0.002001934
8.578	0.002002138
8.58	0.002002368
8.582	0.002002621
8.584	0.00200297
8.586	0.00200334
8.588	0.002003753
8.59	0.002004222
8.592	0.002004746
8.594	0.002005323
8.596	0.002005927
8.598	0.002006567
8.6	0.002007219
8.602	0.002007875
8.604	0.002008545
8.606	0.002009216
8.608	0.002009902
8.61	0.002010583
8.612	0.002011238
8.614	0.002011896
8.616	0.002012503
8.618	0.002013104
8.62	0.002013681
8.622	0.002014186
8.624	0.002014674
8.626	0.002015156
8.628	0.002015594
8.63	0.002015997
8.632	0.002016367
8.634	0.002016741
8.636	0.002017081
8.638	0.002017381
8.64	0.002017664
8.642	0.002017951
8.644	0.002018205
8.646	0.00201842
8.648	0.002018625
8.65	0.002018815
8.652	0.002018957
8.654	0.002019112
8.656	0.002019221
8.658	0.002019324
8.66	0.002019408
8.662	0.002019483
8.664	0.00201954
8.666	0.002019577
8.668	0.002019623
8.67	0.002019655
8.672	0.002019661
8.674	0.002019624
8.676	0.002019651
8.678	0.002019641
8.68	0.002019604
8.682	0.002019561
8.684	0.002019534
8.686	0.002019488
8.688	0.002019451
8.69	0.002019374
8.692	0.002019324
8.694	0.002019226
8.696	0.002019163
8.698	0.002019083
8.7	0.002019001
8.702	0.00201891
8.704	0.002018801
8.706	0.002018681
8.708	0.002018563
8.71	0.002018454
8.712	0.002018332
8.714	0.002018181
8.716	0.002018041
8.718	0.002017906
8.72	0.002017771
8.722	0.00201761
8.724	0.002017437
8.726	0.002017294
8.728	0.002017148
8.73	0.002016965
8.732	0.002016787
8.734	0.002016639
8.736	0.002016475
8.738	0.002016304
8.74	0.002016124
8.742	0.00201596
8.744	0.002015783
8.746	0.002015626
8.748	0.002015439
8.75	0.00201528
8.752	0.00201509
8.754	0.002014938
8.756	0.002014777
8.758	0.002014614
8.76	0.002014451
8.762	0.002014307
8.764	0.002014147
8.766	0.002013988
8.768	0.002013889
8.77	0.00201375
8.772	0.002013583
8.774	0.002013431
8.776	0.002013339
8.778	0.002013224
8.78	0.002013097
8.782	0.002012979
8.784	0.002012894
8.786	0.002012795
8.788	0.002012672
8.79	0.002012539
8.792	0.002012457
8.794	0.00201234
8.796	0.002012247
8.798	0.002012161
8.8	0.002012073
8.802	0.002011968
8.804	0.00201189
8.806	0.002011778
8.808	0.00201171
8.81	0.002011617
8.812	0.002011533
8.814	0.002011435
8.816	0.002011349
8.818	0.002011267
8.82	0.002011197
8.822	0.002011092
8.824	0.002010991
8.826	0.002010933
8.828	0.002010864
8.83	0.002010758
8.832	0.002010659
8.834	0.002010608
8.836	0.002010557
8.838	0.002010467
8.84	0.002010418
8.842	0.002010339
8.844	0.002010259
8.846	0.002010218
8.848	0.002010153
8.85	0.002010115
8.852	0.002010059
8.854	0.002010047
8.856	0.002009984
8.858	0.002009962
8.86	0.002009925
8.862	0.002009926
8.864	0.002009897
8.866	0.002009896
8.868	0.0020099
8.87	0.002009903
8.872	0.002009908
8.874	0.002009908
8.876	0.002009924
8.878	0.002009972
8.88	0.002009997
8.882	0.002010005
8.884	0.00201006
8.886	0.002010112
8.888	0.002010154
8.89	0.002010192
8.892	0.002010254
8.894	0.002010333
8.896	0.002010392
8.898	0.002010469
8.9	0.002010551
8.902	0.002010632
8.904	0.002010717
8.906	0.002010795
8.908	0.002010883
8.91	0.002010979
8.912	0.002011084
8.914	0.002011176
8.916	0.00201127
8.918	0.002011395
8.92	0.002011488
8.922	0.002011573
8.924	0.002011667
8.926	0.002011789
8.928	0.002011883
8.93	0.00201197
8.932	0.002012048
8.934	0.002012156
8.936	0.002012248
8.938	0.002012332
8.94	0.002012382
8.942	0.002012505
8.944	0.002012545
8.946	0.002012608
8.948	0.002012672
8.95	0.002012734
8.952	0.002012786
8.954	0.00201283
8.956	0.002012858
8.958	0.002012881
8.96	0.002012922
8.962	0.002012967
8.964	0.002012969
8.966	0.002012968
8.968	0.002012988
8.97	0.002013007
8.972	0.00201298
8.974	0.002012965
8.976	0.002012973
8.978	0.002012954
8.98	0.002012904
8.982	0.002012861
8.984	0.002012855
8.986	0.002012819
8.988	0.002012772
8.99	0.002012712
8.992	0.002012669
8.994	0.002012622
8.996	0.00201255
8.998	0.002012478
9	0.002012412
9.002	0.002012344
9.004	0.002012268
9.006	0.002012186
9.008	0.002012106
9.01	0.002012014
9.012	0.002011939
9.014	0.002011845
9.016	0.002011731
9.018	0.002011633
9.02	0.002011542
9.022	0.002011439
9.024	0.002011313
9.026	0.002011208
9.028	0.002011116
9.03	0.002010996
9.032	0.002010863
9.034	0.002010768
9.036	0.002010659
9.038	0.002010535
9.04	0.002010403
9.042	0.002010321
9.044	0.002010205
9.046	0.002010064
9.048	0.002009952
9.05	0.002009831
9.052	0.002009706
9.054	0.002009601
9.056	0.002009468
9.058	0.002009333
9.06	0.002009232
9.062	0.002009118
9.064	0.002009007
9.066	0.002008889
9.068	0.002008779
9.07	0.002008688
9.072	0.002008564
9.074	0.002008426
9.076	0.002008347
9.078	0.002008242
9.08	0.002008092
9.082	0.002007978
9.084	0.002007907
9.086	0.002007796
9.088	0.002007688
9.09	0.002007568
9.092	0.002007481
9.094	0.002007379
9.096	0.002007276
9.098	0.002007162
9.1	0.002007096
9.102	0.002006992
9.104	0.002006901
9.106	0.002006776
9.108	0.002006705
9.11	0.002006598
9.112	0.002006535
9.114	0.002006442
9.116	0.002006331
9.118	0.002006258
9.12	0.002006191
9.122	0.002006088
9.124	0.002005992
9.126	0.002005938
9.128	0.002005861
9.13	0.002005768
9.132	0.002005685
9.134	0.002005631
9.136	0.002005559
9.138	0.002005462
9.14	0.002005382
9.142	0.00200534
9.144	0.002005247
9.146	0.002005179
9.148	0.002005121
9.15	0.002005053
9.152	0.002004981
9.154	0.002004926
9.156	0.002004853
9.158	0.002004786
9.16	0.002004735
9.162	0.002004676
9.164	0.0020046
9.166	0.002004534
9.168	0.0020045
9.17	0.002004445
9.172	0.00200437
9.174	0.002004308
9.176	0.00200427
9.178	0.00200421
9.18	0.002004148
9.182	0.002004084
9.184	0.002004069
9.186	0.002004009
9.188	0.002003935
9.19	0.002003862
9.192	0.002003844
9.194	0.002003795
9.196	0.002003738
9.198	0.002003684
9.2	0.002003645
9.202	0.002003592
9.204	0.002003536
9.206	0.002003508
9.208	0.00200346
9.21	0.002003395
9.212	0.00200336
9.214	0.002003303
9.216	0.002003278
9.218	0.002003236
9.22	0.002003199
9.222	0.002003144
9.224	0.002003087
9.226	0.00200305
9.228	0.002003028
9.23	0.002002969
9.232	0.002002912
9.234	0.002002906
9.236	0.002002849
9.238	0.002002805
9.24	0.002002766
9.242	0.002002742
9.244	0.002002713
9.246	0.002002671
9.248	0.002002625
9.25	0.002002613
9.252	0.002002563
9.254	0.002002529
9.256	0.00200249
9.258	0.002002478
9.26	0.002002429
9.262	0.0020024
9.264	0.002002353
9.266	0.002002324
9.268	0.002002313
9.27	0.002002288
9.272	0.00200225
9.274	0.002002203
9.276	0.0020022
9.278	0.002002173
9.28	0.002002127
9.282	0.002002078
9.284	0.00200209
9.286	0.002002056
9.288	0.002002016
9.29	0.002001968
9.292	0.002001968
9.294	0.002001954
9.296	0.00200193
9.298	0.002001911
9.3	0.002001894
9.302	0.002001861
9.304	0.002001824
9.306	0.002001793
9.308	0.00200177
9.31	0.002001752
9.312	0.002001743
9.314	0.002001712
9.316	0.002001681
9.318	0.002001672
9.32	0.002001651
9.322	0.002001629
9.324	0.002001596
9.326	0.00200158
9.328	0.002001558
9.33	0.002001523
9.332	0.002001493
9.334	0.002001484
9.336	0.002001468
9.338	0.002001442
9.34	0.002001408
9.342	0.0020014
9.344	0.002001373
9.346	0.002001355
9.348	0.002001327
9.35	0.002001292
9.352	0.002001312
9.354	0.002001281
9.356	0.002001258
9.358	0.002001227
9.36	0.002001223
9.362	0.002001201
9.364	0.002001174
9.366	0.002001148
9.368	0.002001134
9.37	0.002001108
9.372	0.002001078
9.374	0.002001061
9.376	0.002001044
9.378	0.002001038
9.38	0.002001013
9.382	0.002000978
9.384	0.002000968
9.386	0.002000968
9.388	0.002000947
9.39	0.002000909
9.392	0.002000906
9.394	0.002000891
9.396	0.002000873
9.398	0.002000849
9.4	0.002000845
9.402	0.002000835
9.404	0.002000821
9.406	0.002000819
9.408	0.002000828
9.41	0.002000815
9.412	0.002000829
9.414	0.002000818
9.416	0.002000834
9.418	0.002000862
9.42	0.002000905
9.422	0.002000944
9.424	0.002000987
9.426	0.002001082
9.428	0.002001186
9.43	0.002001296
9.432	0.002001438
9.434	0.002001658
9.436	0.002001924
9.438	0.00200221
9.44	0.00200255
9.442	0.002002968
9.444	0.002003429
9.446	0.002003951
9.448	0.002004518
9.45	0.002005153
9.452	0.002005796
9.454	0.002006502
9.456	0.002007171
9.458	0.002007855
9.46	0.002008551
9.462	0.002009256
9.464	0.002009975
9.466	0.002010656
9.468	0.00201136
9.47	0.00201202
9.472	0.002012629
9.474	0.002013221
9.476	0.002013818
9.478	0.002014334
9.48	0.002014809
9.482	0.00201526
9.484	0.002015719
9.486	0.002016136
9.488	0.002016503
9.49	0.002016856
9.492	0.002017198
9.494	0.002017505
9.496	0.002017795
9.498	0.002018062
9.5	0.002018317
9.502	0.00201853
9.504	0.002018735
9.506	0.002018901
9.508	0.002019064
9.51	0.002019173
9.512	0.002019303
9.514	0.002019403
9.516	0.002019475
9.518	0.002019568
9.52	0.002019614
9.522	0.002019657
9.524	0.002019678
9.526	0.00201972
9.528	0.002019717
9.53	0.002019721
9.532	0.002019699
9.534	0.002019711
9.536	0.002019689
9.538	0.002019653
9.54	0.002019605
9.542	0.002019582
9.544	0.002019526
9.546	0.002019471
9.548	0.002019404
9.55	0.002019351
9.552	0.002019285
9.554	0.002019205
9.556	0.002019146
9.558	0.002019036
9.56	0.00201894
9.562	0.002018854
9.564	0.00201873
9.566	0.002018605
9.568	0.002018529
9.57	0.002018419
9.572	0.002018272
9.574	0.002018133
9.576	0.002018018
9.578	0.002017892
9.58	0.002017738
9.582	0.002017588
9.584	0.00201746
9.586	0.002017319
9.588	0.002017166
9.59	0.002016997
9.592	0.002016859
9.594	0.00201672
9.596	0.00201655
9.598	0.002016391
9.6	0.002016273
9.602	0.002016121
9.604	0.002015981
9.606	0.002015825
9.608	0.002015687
9.61	0.002015542
9.612	0.002015409
9.614	0.002015259
9.616	0.002015138
9.618	0.002015037
9.62	0.002014921
9.622	0.002014787
9.624	0.002014662
9.626	0.002014552
9.628	0.002014462
9.63	0.002014355
9.632	0.00201423
9.634	0.002014165
9.636	0.002014086
9.638	0.002013985
9.64	0.002013901
9.642	0.002013844
9.644	0.002013778
9.646	0.002013714
9.648	0.002013643
9.65	0.002013595
9.652	0.002013549
9.654	0.002013488
9.656	0.00201343
9.658	0.002013388
9.66	0.002013356
9.662	0.002013291
9.664	0.002013233
9.666	0.002013182
9.668	0.002013134
9.67	0.002013112
9.672	0.002013056
9.674	0.002012999
9.676	0.002012963
9.678	0.002012928
9.68	0.002012859
9.682	0.002012796
9.684	0.00201276
9.686	0.002012714
9.688	0.002012646
9.69	0.002012574
9.692	0.002012536
9.694	0.002012484
9.696	0.002012426
9.698	0.002012357
9.7	0.002012322
9.702	0.00201227
9.704	0.002012217
9.706	0.002012148
9.708	0.002012121
9.71	0.002012077
9.712	0.002012032
9.714	0.002011991
9.716	0.002011935
9.718	0.002011901
9.72	0.002011888
9.722	0.002011841
9.724	0.002011802
9.726	0.002011798
9.728	0.002011801
9.73	0.002011769
9.732	0.002011725
9.734	0.002011716
9.736	0.002011717
9.738	0.002011725
9.74	0.002011723
9.742	0.002011744
9.744	0.00201175
9.746	0.002011757
9.748	0.002011764
9.75	0.002011794
9.752	0.002011824
9.754	0.002011839
9.756	0.002011867
9.758	0.00201189
9.76	0.002011936
9.762	0.002012018
9.764	0.002012023
9.766	0.002012055
9.768	0.002012119
9.77	0.002012171
9.772	0.002012222
9.774	0.002012257
9.776	0.002012338
9.778	0.002012408
9.78	0.00201246
9.782	0.002012506
9.784	0.002012588
9.786	0.002012661
9.788	0.002012712
9.79	0.002012761
9.792	0.002012818
9.794	0.002012894
9.796	0.002012943
9.798	0.002013005
9.8	0.002013075
9.802	0.002013113
9.804	0.002013174
9.806	0.002013223
9.808	0.002013276
9.81	0.002013292
9.812	0.002013344
9.814	0.002013369
9.816	0.002013397
9.818	0.002013438
9.82	0.002013468
9.822	0.002013481
9.824	0.002013486
9.826	0.002013506
9.828	0.00201352
9.83	0.002013514
9.832	0.002013494
9.834	0.002013505
9.836	0.002013504
9.838	0.00201349
9.84	0.002013442
9.842	0.002013424
9.844	0.00201341
9.846	0.002013367
9.848	0.002013337
9.85	0.00201328
9.852	0.002013251
9.854	0.002013207
9.856	0.002013154
9.858	0.002013094
9.86	0.002013059
9.862	0.002012978
9.864	0.002012913
9.866	0.002012844
9.868	0.002012782
9.87	0.002012714
9.872	0.002012635
9.874	0.002012533
9.876	0.002012452
9.878	0.002012378
9.88	0.002012294
9.882	0.002012183
9.884	0.002012102
9.886	0.00201202
9.888	0.002011902
9.89	0.002011789
9.892	0.00201171
9.894	0.002011595
9.896	0.002011492
9.898	0.002011374
9.9	0.00201128
9.902	0.002011163
9.904	0.002011057
9.906	0.00201095
9.908	0.002010843
9.91	0.002010723
9.912	0.002010614
9.914	0.002010505
9.916	0.002010378
9.918	0.002010278
9.92	0.002010175
9.922	0.002010069
9.924	0.002009934
9.926	0.002009839
9.928	0.002009739
9.93	0.002009619
9.932	0.002009486
9.934	0.002009399
9.936	0.002009295
9.938	0.002009181
9.94	0.002009059
9.942	0.002008961
9.944	0.002008837
9.946	0.002008733
9.948	0.002008624
9.95	0.002008508
9.952	0.002008404
9.954	0.002008328
9.956	0.002008212
9.958	0.002008108
9.96	0.002008008
9.962	0.002007909
9.964	0.00200781
9.966	0.002007724
9.968	0.002007613
9.97	0.002007521
9.972	0.002007405
9.974	0.002007305
9.976	0.002007229
9.978	0.00200715
9.98	0.002007048
9.982	0.002006946
9.984	0.002006881
9.986	0.002006792
9.988	0.002006697
9.99	0.002006602
9.992	0.002006533
9.994	0.002006444
9.996	0.002006373
9.998	0.00200628
10	0.002006198
10.002	0.002006112
10.004	0.00200604
10.006	0.002005967
10.008	0.002005902
10.01	0.002005802
10.012	0.002005748
10.014	0.002005674
10.016	0.002005592
10.018	0.002005524
10.02	0.002005482
10.022	0.002005408
10.024	0.002005326
10.026	0.002005279
10.028	0.002005224
10.03	0.00200515
10.032	0.002005049
10.034	0.002005009
10.036	0.002004967
10.038	0.002004895
10.04	0.002004804
10.042	0.00200477
10.044	0.002004719
10.046	0.002004671
10.048	0.002004595
10.05	0.002004553
10.052	0.00200449
10.054	0.002004431
10.056	0.002004371
10.058	0.002004338
10.06	0.00200427
10.062	0.002004226
10.064	0.002004167
10.066	0.002004112
10.068	0.002004097
10.07	0.002004011
10.072	0.002003959
10.074	0.002003897
10.076	0.002003866
10.078	0.002003835
10.08	0.002003781
10.082	0.002003709
10.084	0.002003681
10.086	0.002003637
10.088	0.002003582
10.09	0.002003515
10.092	0.002003485
10.094	0.002003447
10.096	0.002003401
10.098	0.002003349
10.1	0.002003317
10.102	0.002003273
10.104	0.002003249
10.106	0.002003205
10.108	0.002003159
10.11	0.002003107
10.112	0.002003087
10.114	0.002003035
10.116	0.002002993
10.118	0.002002964
10.12	0.002002936
10.122	0.002002889
10.124	0.002002851
10.126	0.002002824
10.128	0.002002799
10.13	0.002002748
10.132	0.002002686
10.134	0.002002678
10.136	0.002002649
10.138	0.002002617
10.14	0.002002582
10.142	0.002002559
10.144	0.002002522
10.146	0.002002503
10.148	0.002002449
10.15	0.002002422
10.152	0.002002405
10.154	0.002002368
10.156	0.002002339
10.158	0.00200231
10.16	0.002002289
10.162	0.002002269
10.164	0.002002225
10.166	0.002002197
10.168	0.002002182
10.17	0.002002156
10.172	0.00200214
10.174	0.002002097
10.176	0.002002088
10.178	0.00200206
10.18	0.002002029
10.182	0.00200198
10.184	0.002001977
10.186	0.002001947
10.188	0.002001929
10.19	0.00200189
10.192	0.002001876
10.194	0.002001844
10.196	0.002001824
10.198	0.002001788
10.2	0.002001772
10.202	0.00200174
10.204	0.002001732
10.206	0.002001713
10.208	0.002001687
10.21	0.00200165
10.212	0.002001615
10.214	0.00200159
10.216	0.00200156
10.218	0.002001555
10.22	0.002001544
10.222	0.002001516
10.224	0.002001464
10.226	0.002001442
10.228	0.002001446
10.23	0.002001397
10.232	0.002001364
10.234	0.002001374
10.236	0.002001355
10.238	0.002001313
10.24	0.002001291
10.242	0.002001282
10.244	0.002001237
10.246	0.002001211
10.248	0.002001183
10.25	0.00200118
10.252	0.002001165
10.254	0.00200114
10.256	0.002001122
10.258	0.002001105
10.26	0.002001065
10.262	0.002001055
10.264	0.00200103
10.266	0.002001006
10.268	0.002001006
10.27	0.002000999
10.272	0.00200099
10.274	0.002000975
10.276	0.002000959
10.278	0.002000947
10.28	0.002000936
10.282	0.002000908
10.284	0.002000931
10.286	0.002000945
10.288	0.002000955
10.29	0.002000946
10.292	0.002000978
10.294	0.002001001
10.296	0.002001037
10.298	0.00200108
10.3	0.002001169
10.302	0.002001253
10.304	0.002001397
10.306	0.00200155
10.308	0.002001752
10.31	0.002002
10.312	0.002002305
10.314	0.002002648
10.316	0.002003053
10.318	0.002003531
10.32	0.002004058
10.322	0.002004615
10.324	0.002005192
10.326	0.002005878
10.328	0.002006556
10.33	0.00200723
10.332	0.002007895
10.334	0.002008613
10.336	0.002009333
10.338	0.002010042
10.34	0.002010701
10.342	0.002011392
10.344	0.002012056
10.346	0.002012681
10.348	0.002013274
10.35	0.002013849
10.352	0.002014357
10.354	0.002014862
10.356	0.002015305
10.358	0.002015747
10.36	0.002016143
10.362	0.002016535
10.364	0.002016883
10.366	0.002017225
10.368	0.002017555
10.37	0.002017843
10.372	0.002018093
10.374	0.002018336
10.376	0.002018598
10.378	0.002018783
10.38	0.002018947
10.382	0.002019081
10.384	0.002019239
10.386	0.002019366
10.388	0.002019457
10.39	0.002019528
10.392	0.002019604
10.394	0.002019658
10.396	0.002019692
10.398	0.002019723
10.4	0.002019753
10.402	0.002019772
10.404	0.002019765
10.406	0.00201976
10.408	0.002019742
10.41	0.002019733
10.412	0.002019707
10.414	0.002019643
10.416	0.002019613
10.418	0.002019586
10.42	0.002019535
10.422	0.002019443
10.424	0.002019365
10.426	0.002019317
10.428	0.002019246
10.43	0.002019152
10.432	0.002019047
10.434	0.002018983
10.436	0.002018878
10.438	0.002018765
10.44	0.002018651
10.442	0.002018549
10.444	0.002018425
10.446	0.002018318
10.448	0.002018158
10.45	0.002018037
10.452	0.002017888
10.454	0.002017757
10.456	0.002017623
10.458	0.002017457
10.46	0.002017313
10.462	0.002017179
10.464	0.002017028
10.466	0.00201687
10.468	0.002016747
10.47	0.00201657
10.472	0.002016427
10.474	0.002016275
10.476	0.002016143
10.478	0.002016021
10.48	0.002015862
10.482	0.002015683
10.484	0.002015565
10.486	0.002015452
10.488	0.002015309
10.49	0.00201516
10.492	0.002015057
10.494	0.00201494
10.496	0.002014805
10.498	0.002014687
10.5	0.002014604
10.502	0.002014473
10.504	0.002014365
10.506	0.002014277
10.508	0.002014194
10.51	0.002014099
10.512	0.002014036
10.514	0.002013956
10.516	0.002013879
10.518	0.002013819
10.52	0.002013771
10.522	0.002013719
10.524	0.002013637
10.526	0.002013572
10.528	0.00201353
10.53	0.00201349
10.532	0.002013417
10.534	0.002013394
10.536	0.002013358
10.538	0.002013302
10.54	0.002013245
10.542	0.002013216
10.544	0.002013167
10.546	0.002013112
10.548	0.002013061
10.55	0.002013023
10.552	0.002012966
10.554	0.002012912
10.556	0.002012855
10.558	0.002012793
10.56	0.002012763
10.562	0.002012706
10.564	0.002012639
10.566	0.002012581
10.568	0.002012543
10.57	0.002012491
10.572	0.002012424
10.574	0.002012358
10.576	0.002012326
10.578	0.002012286
10.58	0.002012231
10.582	0.002012168
10.584	0.002012123
10.586	0.002012091
10.588	0.002012043
10.59	0.002011985
10.592	0.00201197
10.594	0.002011958
10.596	0.002011933
10.598	0.002011907
10.6	0.002011899
10.602	0.002011872
10.604	0.002011867
10.606	0.002011853
10.608	0.002011849
10.61	0.002011839
10.612	0.00201185
10.614	0.002011853
10.616	0.002011852
10.618	0.002011875
10.62	0.002011906
10.622	0.002011911
10.624	0.002011921
10.626	0.002011969
10.628	0.002012013
10.63	0.002012019
10.632	0.002012054
10.634	0.002012117
10.636	0.002012173
10.638	0.002012198
10.64	0.002012249
10.642	0.002012316
10.644	0.002012372
10.646	0.002012418
10.648	0.002012452
10.65	0.002012525
10.652	0.002012602
10.654	0.002012671
10.656	0.002012734
10.658	0.002012793
10.66	0.002012866
10.662	0.002012936
10.664	0.002012992
10.666	0.002013052
10.668	0.002013124
10.67	0.002013191
10.672	0.002013249
10.674	0.002013291
10.676	0.002013364
10.678	0.002013414
10.68	0.002013458
10.682	0.002013508
10.684	0.002013538
10.686	0.002013566
10.688	0.002013614
10.69	0.002013627
10.692	0.002013669
10.694	0.002013694
10.696	0.002013701
10.698	0.002013698
10.7	0.002013718
10.702	0.002013722
10.704	0.002013722
10.706	0.002013712
10.708	0.002013698
10.71	0.002013681
10.712	0.00201368
10.714	0.002013651
10.716	0.002013613
10.718	0.002013595
10.72	0.002013561
10.722	0.002013521
10.724	0.002013449
10.726	0.002013438
10.728	0.002013389
10.73	0.002013324
10.732	0.002013251
10.734	0.00201323
10.736	0.002013154
10.738	0.002013082
10.74	0.002012996
10.742	0.002012948
10.744	0.002012868
10.746	0.002012783
10.748	0.002012697
10.75	0.002012613
10.752	0.002012523
10.754	0.002012439
10.756	0.002012351
10.758	0.002012257
10.76	0.002012162
10.762	0.002012085
10.764	0.002011952
10.766	0.00201186
10.768	0.002011758
10.77	0.002011682
10.772	0.00201156
10.774	0.002011432
10.776	0.002011341
10.778	0.002011246
10.78	0.002011127
10.782	0.002011003
10.784	0.002010916
10.786	0.002010832
10.788	0.002010697
10.79	0.002010572
10.792	0.002010488
10.794	0.002010378
10.796	0.002010256
10.798	0.002010142
10.8	0.002010048
10.802	0.002009938
10.804	0.00200982
10.806	0.002009695
10.808	0.002009596
10.81	0.002009489
10.812	0.002009393
10.814	0.00200927
10.816	0.002009168
10.818	0.002009066
10.82	0.002008969
10.822	0.002008851
10.824	0.002008755
10.826	0.002008659
10.828	0.002008575
10.83	0.002008476
10.832	0.002008336
10.834	0.002008265
10.836	0.002008159
10.838	0.002008052
10.84	0.002007939
10.842	0.002007863
10.844	0.002007774
10.846	0.00200769
10.848	0.002007559
10.85	0.002007477
10.852	0.002007386
10.854	0.002007305
10.856	0.002007219
10.858	0.00200712
10.86	0.00200704
10.862	0.002006964
10.864	0.00200688
10.866	0.002006802
10.868	0.002006701
10.87	0.002006637
10.872	0.002006562
10.874	0.002006466
10.876	0.002006409
10.878	0.002006332
10.88	0.002006253
10.882	0.002006149
10.884	0.002006105
10.886	0.002006018
10.888	0.002005973
10.89	0.002005864
10.892	0.002005813
10.894	0.002005743
10.896	0.002005677
10.898	0.002005574
10.9	0.002005536
10.902	0.002005476
10.904	0.002005413
10.906	0.002005337
10.908	0.002005286
10.91	0.002005216
10.912	0.002005161
10.914	0.002005086
10.916	0.002005029
10.918	0.002004973
10.92	0.002004929
10.922	0.002004861
10.924	0.002004792
10.926	0.002004753
10.928	0.002004703
10.93	0.002004636
10.932	0.002004561
10.934	0.002004542
10.936	0.002004501
10.938	0.002004425
10.94	0.002004356
10.942	0.002004324
10.944	0.002004274
10.946	0.002004215
10.948	0.002004158
10.95	0.002004125
10.952	0.002004059
10.954	0.002004029
10.956	0.00200397
10.958	0.002003924
10.96	0.002003868
10.962	0.002003827
10.964	0.002003779
10.966	0.002003723
10.968	0.002003672
10.97	0.002003651
10.972	0.002003584
10.974	0.002003541
10.976	0.002003513
10.978	0.002003482
10.98	0.002003427
10.982	0.002003372
10.984	0.002003342
10.986	0.002003328
10.988	0.002003247
10.99	0.002003224
10.992	0.002003179
10.994	0.002003139
10.996	0.002003104
10.998	0.002003047
11	0.002003023
11.002	0.00200299
11.004	0.002002967
11.006	0.002002914
11.008	0.002002875
11.01	0.002002834
11.012	0.002002817
11.014	0.002002781
11.016	0.002002739
11.018	0.002002721
11.02	0.002002695
11.022	0.00200264
11.024	0.002002601
11.026	0.002002574
11.028	0.002002558
11.03	0.002002519
11.032	0.002002465
11.034	0.002002457
11.036	0.00200242
11.038	0.002002397
11.04	0.002002359
11.042	0.002002337
11.044	0.00200233
11.046	0.002002269
11.048	0.002002234
11.05	0.002002229
11.052	0.0020022
11.054	0.002002163
11.056	0.002002136
11.058	0.00200211
11.06	0.002002085
11.062	0.002002061
11.064	0.002002018
11.066	0.002002002
11.068	0.002001982
11.07	0.00200196
11.072	0.002001916
11.074	0.002001882
11.076	0.002001864
11.078	0.00200187
11.08	0.002001817
11.082	0.002001769
11.084	0.002001777
11.086	0.002001755
11.088	0.002001693
11.09	0.002001665
11.092	0.002001676
11.094	0.002001625
11.096	0.002001603
11.098	0.002001547
11.1	0.002001541
11.102	0.002001516
11.104	0.002001501
11.106	0.002001457
11.108	0.002001448
11.11	0.002001409
11.112	0.002001385
11.114	0.002001381
11.116	0.002001336
11.118	0.002001326
11.12	0.002001297
11.122	0.002001271
11.124	0.00200122
11.126	0.002001231
11.128	0.002001212
11.13	0.002001166
11.132	0.002001141
11.134	0.002001128
11.136	0.002001147
11.138	0.002001115
11.14	0.002001052
11.142	0.002001048
11.144	0.002001038
11.146	0.002001036
11.148	0.00200101
11.15	0.002000998
11.152	0.002000996
11.154	0.002000996
11.156	0.002000998
11.158	0.002001006
11.16	0.002001013
11.162	0.002001046
11.164	0.002001069
11.166	0.002001098
11.168	0.002001167
11.17	0.002001247
11.172	0.002001317
11.174	0.002001441
11.176	0.002001607
11.178	0.002001804
11.18	0.00200203
11.182	0.002002315
11.184	0.00200267
11.186	0.002003074
11.188	0.002003516
11.19	0.002004008
11.192	0.002004574
11.194	0.002005206
11.196	0.00200582
11.198	0.002006463
11.2	0.002007145
11.202	0.002007809
11.204	0.002008518
11.206	0.002009223
11.208	0.002009927
11.21	0.002010631
11.212	0.002011295
11.214	0.002011948
11.216	0.002012568
11.218	0.002013179
11.22	0.002013742
11.222	0.002014257
11.224	0.002014735
11.226	0.002015231
11.228	0.002015659
11.23	0.002016044
11.232	0.00201642
11.234	0.002016808
11.236	0.002017142
11.238	0.002017435
11.24	0.00201771
11.242	0.002017992
11.244	0.002018232
11.246	0.002018446
11.248	0.002018636
11.25	0.002018819
11.252	0.002018989
11.254	0.002019114
11.256	0.002019208
11.258	0.002019311
11.26	0.002019396
11.262	0.00201947
11.264	0.002019532
11.266	0.002019566
11.268	0.002019585
11.27	0.002019604
11.272	0.002019628
11.274	0.002019606
11.276	0.002019611
11.278	0.002019597
11.28	0.002019573
11.282	0.002019512
11.284	0.002019491
11.286	0.002019463
11.288	0.002019395
11.29	0.002019325
11.292	0.002019269
11.294	0.002019205
11.296	0.002019127
11.298	0.002019059
11.3	0.00201896
11.302	0.00201886
11.304	0.002018755
11.306	0.002018629
11.308	0.002018527
11.31	0.00201841
11.312	0.002018285
11.314	0.002018148
11.316	0.002017989
11.318	0.002017868
11.32	0.002017726
11.322	0.002017565
11.324	0.002017398
11.326	0.00201726
11.328	0.002017094
11.33	0.002016916
11.332	0.002016727
11.334	0.002016592
11.336	0.002016436
11.338	0.002016258
11.34	0.00201606
11.342	0.002015907
11.344	0.002015746
11.346	0.002015562
11.348	0.002015383
11.35	0.002015237
11.352	0.002015063
11.354	0.002014909
11.356	0.002014743
11.358	0.002014585
11.36	0.002014413
11.362	0.002014298
11.364	0.002014143
11.366	0.002013981
11.368	0.002013851
11.37	0.00201372
11.372	0.002013576
11.374	0.002013438
11.376	0.002013325
11.378	0.002013216
11.38	0.002013081
11.382	0.002012959
11.384	0.002012867
11.386	0.002012776
11.388	0.002012663
11.39	0.002012548
11.392	0.002012464
11.394	0.002012395
11.396	0.002012281
11.398	0.002012181
11.4	0.002012139
11.402	0.002012027
11.404	0.002011933
11.406	0.002011846
11.408	0.002011774
11.41	0.002011679
11.412	0.002011597
11.414	0.002011532
11.416	0.002011435
11.418	0.002011354
11.42	0.002011286
11.422	0.002011193
11.424	0.002011118
11.426	0.002011048
11.428	0.002010996
11.43	0.002010896
11.432	0.002010806
11.434	0.002010763
11.436	0.002010706
11.438	0.002010638
11.44	0.002010538
11.442	0.002010505
11.444	0.00201045
11.446	0.002010391
11.448	0.002010333
11.45	0.00201031
11.452	0.002010272
11.454	0.002010231
11.456	0.002010192
11.458	0.00201018
11.46	0.002010162
11.462	0.002010142
11.464	0.002010142
11.466	0.002010132
11.468	0.002010128
11.47	0.002010168
11.472	0.002010166
11.474	0.002010158
11.476	0.002010197
11.478	0.002010248
11.48	0.002010265
11.482	0.002010285
11.484	0.002010362
11.486	0.002010429
11.488	0.002010471
11.49	0.002010508
11.492	0.002010598
11.494	0.002010666
11.496	0.002010728
11.498	0.00201079
11.5	0.002010892
11.502	0.002010994
11.504	0.002011072
11.506	0.002011157
11.508	0.002011243
11.51	0.002011366
11.512	0.002011459
11.514	0.002011551
11.516	0.002011658
11.518	0.002011759
11.52	0.002011863
11.522	0.002011965
11.524	0.002012063
11.526	0.00201217
11.528	0.002012264
11.53	0.002012363
11.532	0.002012445
11.534	0.002012549
11.536	0.002012658
11.538	0.002012732
11.54	0.002012801
11.542	0.002012886
11.544	0.002012969
11.546	0.002013028
11.548	0.002013081
11.55	0.002013146
11.552	0.00201319
11.554	0.002013235
11.556	0.002013246
11.558	0.002013289
11.56	0.002013306
11.562	0.002013339
11.564	0.002013354
11.566	0.002013349
11.568	0.002013365
11.57	0.002013357
11.572	0.002013353
11.574	0.002013334
11.576	0.002013332
11.578	0.002013307
11.58	0.002013271
11.582	0.002013229
11.584	0.0020132
11.586	0.002013178
11.588	0.002013123
11.59	0.002013046
11.592	0.002013008
11.594	0.002012949
11.596	0.002012881
11.598	0.002012801
11.6	0.002012749
11.602	0.002012682
11.604	0.002012612
11.606	0.002012509
11.608	0.002012426
11.61	0.002012345
11.612	0.002012237
11.614	0.002012141
11.616	0.002012043
11.618	0.002011951
11.62	0.002011853
11.622	0.002011727
11.624	0.002011617
11.626	0.002011514
11.628	0.002011406
11.63	0.002011272
11.632	0.00201115
11.634	0.002011064
11.636	0.002010951
11.638	0.002010827
11.64	0.002010691
11.642	0.002010613
11.644	0.002010469
11.646	0.002010353
11.648	0.002010219
11.65	0.002010134
11.652	0.002009994
11.654	0.002009878
11.656	0.002009754
11.658	0.002009662
11.66	0.002009529
11.662	0.002009409
11.664	0.002009286
11.666	0.002009164
11.668	0.002009065
11.67	0.002008972
11.672	0.002008869
11.674	0.002008732
11.676	0.002008649
11.678	0.002008544
11.68	0.002008412
11.682	0.0020083
11.684	0.002008213
11.686	0.002008112
11.688	0.002008005
11.69	0.002007882
11.692	0.00200781
11.694	0.002007704
11.696	0.002007595
11.698	0.002007484
11.7	0.002007401
11.702	0.002007304
11.704	0.002007213
11.706	0.002007129
11.708	0.002007044
11.71	0.002006929
11.712	0.002006853
11.714	0.00200677
11.716	0.002006672
11.718	0.002006608
11.72	0.002006521
11.722	0.002006418
11.724	0.002006317
11.726	0.002006256
11.728	0.00200619
11.73	0.00200611
11.732	0.002006029
11.734	0.002005973
11.736	0.002005908
11.738	0.002005823
11.74	0.00200574
11.742	0.00200568
11.744	0.002005616
11.746	0.002005527
11.748	0.002005452
11.75	0.002005403
11.752	0.00200536
11.754	0.002005299
11.756	0.002005224
11.758	0.002005158
11.76	0.00200509
11.762	0.002005044
11.764	0.002004981
11.766	0.002004914
11.768	0.002004873
11.77	0.002004806
11.772	0.002004736
11.774	0.002004678
11.776	0.00200464
11.778	0.002004591
11.78	0.002004534
11.782	0.002004461
11.784	0.002004435
11.786	0.002004395
11.788	0.002004328
11.79	0.002004254
11.792	0.002004219
11.794	0.002004173
11.796	0.002004115
11.798	0.002004061
11.8	0.002004025
11.802	0.002003973
11.804	0.002003924
11.806	0.002003878
11.808	0.002003829
11.81	0.002003813
11.812	0.002003747
11.814	0.002003688
11.816	0.002003624
11.818	0.002003588
11.82	0.002003539
11.822	0.002003499
11.824	0.002003437
11.826	0.002003416
11.828	0.002003384
11.83	0.002003324
11.832	0.002003276
11.834	0.002003257
11.836	0.002003217
11.838	0.002003173
11.84	0.002003107
11.842	0.002003078
11.844	0.002003041
11.846	0.002002994
11.848	0.002002948
11.85	0.002002927
11.852	0.00200289
11.854	0.002002851
11.856	0.002002815
11.858	0.002002774
11.86	0.002002726
11.862	0.002002689
11.864	0.002002666
11.866	0.002002633
11.868	0.002002603
11.87	0.002002589
11.872	0.002002537
11.874	0.002002484
11.876	0.002002467
11.878	0.002002445
11.88	0.002002423
11.882	0.002002364
11.884	0.00200236
11.886	0.002002331
11.888	0.002002297
11.89	0.00200225
11.892	0.002002252
11.894	0.002002214
11.896	0.002002182
11.898	0.002002143
11.9	0.002002132
11.902	0.002002097
11.904	0.002002073
11.906	0.00200204
11.908	0.002002023
11.91	0.002001983
11.912	0.002001983
11.914	0.002001941
11.916	0.002001898
11.918	0.002001888
11.92	0.002001875
11.922	0.002001837
11.924	0.002001797
11.926	0.002001797
11.928	0.002001776
11.93	0.002001742
11.932	0.002001692
11.934	0.002001693
11.936	0.002001667
11.938	0.002001631
11.94	0.002001588
11.942	0.002001596
11.944	0.00200156
11.946	0.002001536
11.948	0.002001495
11.95	0.002001491
11.952	0.002001471
11.954	0.002001445
11.956	0.002001421
11.958	0.002001397
11.96	0.002001366
11.962	0.002001344
11.964	0.002001318
11.966	0.002001291
11.968	0.002001278
11.97	0.002001258
11.972	0.002001228
11.974	0.002001191
11.976	0.002001182
11.978	0.002001176
11.98	0.002001137
11.982	0.002001101
11.984	0.002001092
11.986	0.002001092
11.988	0.002001063
11.99	0.002001031
11.992	0.002001031
11.994	0.002001015
11.996	0.002000986
11.998	0.002000956
12	0.002000956
12.002	0.002000949
12.004	0.002000934
12.006	0.002000926
12.008	0.002000912
12.01	0.002000906
12.012	0.002000926
12.014	0.00200097
12.016	0.002000965
12.018	0.002000977
12.02	0.002001012
12.022	0.002001042
12.024	0.002001108
12.026	0.002001198
12.028	0.002001309
12.03	0.002001444
12.032	0.00200159
12.034	0.002001827
12.036	0.002002121
12.038	0.002002422
12.04	0.002002768
12.042	0.002003218
12.044	0.002003699
12.046	0.002004231
12.048	0.00200482
12.05	0.00200547
12.052	0.002006127
12.054	0.002006812
12.056	0.002007495
12.058	0.002008223
12.06	0.002008914
12.062	0.002009621
12.064	0.002010337
12.066	0.00201102
12.068	0.002011695
12.07	0.002012352
12.072	0.002012971
12.074	0.002013538
12.076	0.002014116
12.078	0.00201463
12.08	0.002015122
12.082	0.002015554
12.084	0.002015977
12.086	0.002016404
12.088	0.002016755
12.09	0.002017092
12.092	0.002017443
12.094	0.002017743
12.096	0.002018026
12.098	0.002018263
12.1	0.002018515
12.102	0.002018746
12.104	0.002018935
12.106	0.002019096
12.108	0.002019242
12.11	0.002019364
12.112	0.002019472
12.114	0.002019557
12.116	0.00201964
12.118	0.002019713
12.12	0.002019786
12.122	0.00201982
12.124	0.002019858
12.126	0.002019877
12.128	0.002019905
12.13	0.002019894
12.132	0.002019882
12.134	0.002019891
12.136	0.002019874
12.138	0.002019827
12.14	0.002019797
12.142	0.00201979
12.144	0.002019735
12.146	0.002019674
12.148	0.002019613
12.15	0.002019552
12.152	0.002019471
12.154	0.002019402
12.156	0.002019312
12.158	0.002019239
12.16	0.002019144
12.162	0.002019054
12.164	0.002018943
12.166	0.002018835
12.168	0.002018723
12.17	0.002018628
12.172	0.002018485
12.174	0.002018386
12.176	0.002018256
12.178	0.002018143
12.18	0.002017975
12.182	0.002017841
12.184	0.002017713
12.186	0.002017582
12.188	0.002017437
12.19	0.002017277
12.192	0.002017155
12.194	0.002017015
12.196	0.002016833
12.198	0.002016718
12.2	0.002016582
12.202	0.00201645
12.204	0.002016301
12.206	0.002016162
12.208	0.00201604
12.21	0.002015908
12.212	0.002015778
12.214	0.002015649
12.216	0.002015556
12.218	0.002015437
12.22	0.002015351
12.222	0.002015216
12.224	0.002015068
12.226	0.00201499
12.228	0.002014901
12.23	0.002014811
12.232	0.002014714
12.234	0.002014652
12.236	0.002014586
12.238	0.002014512
12.24	0.002014419
12.242	0.002014386
12.244	0.002014326
12.246	0.002014271
12.248	0.002014197
12.25	0.00201417
12.252	0.002014133
12.254	0.002014083
12.256	0.002014025
12.258	0.002013996
12.26	0.002013951
12.262	0.002013909
12.264	0.002013876
12.266	0.002013835
12.268	0.002013796
12.27	0.002013738
12.272	0.002013705
12.274	0.002013646
12.276	0.002013599
12.278	0.002013566
12.28	0.002013541
12.282	0.002013451
12.284	0.002013415
12.286	0.002013369
12.288	0.002013304
12.29	0.002013235
12.292	0.002013201
12.294	0.00201316
12.296	0.002013087
12.298	0.00201303
12.3	0.002012985
12.302	0.002012934
12.304	0.002012881
12.306	0.002012839
12.308	0.002012803
12.31	0.002012758
12.312	0.002012699
12.314	0.002012658
12.316	0.002012629
12.318	0.002012605
12.32	0.002012578
12.322	0.002012582
12.324	0.002012529
12.326	0.002012498
12.328	0.00201249
12.33	0.002012473
12.332	0.002012458
12.334	0.002012482
12.336	0.002012489
12.338	0.002012468
12.34	0.002012462
12.342	0.002012486
12.344	0.002012498
12.346	0.002012507
12.348	0.00201251
12.35	0.002012564
12.352	0.002012587
12.354	0.002012608
12.356	0.002012641
12.358	0.002012684
12.36	0.002012712
12.362	0.002012761
12.364	0.002012806
12.366	0.002012835
12.368	0.002012897
12.37	0.002012976
12.372	0.002013016
12.374	0.002013071
12.376	0.002013127
12.378	0.002013184
12.38	0.00201325
12.382	0.00201329
12.384	0.002013376
12.386	0.002013445
12.388	0.002013499
12.39	0.002013531
12.392	0.002013612
12.394	0.002013677
12.396	0.00201373
12.398	0.002013763
12.4	0.002013826
12.402	0.002013878
12.404	0.002013918
12.406	0.002013953
12.408	0.002014
12.41	0.002014034
12.412	0.002014061
12.414	0.002014091
12.416	0.002014112
12.418	0.00201414
12.42	0.002014159
12.422	0.002014168
12.424	0.002014183
12.426	0.002014181
12.428	0.00201419
12.43	0.002014177
12.432	0.002014158
12.434	0.002014161
12.436	0.002014151
12.438	0.002014126
12.44	0.002014073
12.442	0.002014073
12.444	0.002014046
12.446	0.002013997
12.448	0.002013942
12.45	0.002013899
12.452	0.002013867
12.454	0.002013813
12.456	0.002013746
12.458	0.002013702
12.46	0.002013639
12.462	0.002013569
12.464	0.002013506
12.466	0.002013441
12.468	0.002013365
12.47	0.002013299
12.472	0.002013217
12.474	0.002013107
12.476	0.002013034
12.478	0.00201296
12.48	0.002012848
12.482	0.002012755
12.484	0.00201266
12.486	0.002012583
12.488	0.002012473
12.49	0.002012351
12.492	0.002012276
12.494	0.002012176
12.496	0.002012061
12.498	0.00201195
12.5	0.002011838
12.502	0.002011739
12.504	0.002011622
12.506	0.002011518
12.508	0.002011413
12.51	0.002011303
12.512	0.0020112
12.514	0.002011089
12.516	0.002010967
12.518	0.00201086
12.52	0.002010754
12.522	0.002010638
12.524	0.002010517
12.526	0.002010447
12.528	0.002010324
12.53	0.002010202
12.532	0.002010078
12.534	0.002009989
12.536	0.002009884
12.538	0.002009773
12.54	0.00200965
12.542	0.002009561
12.544	0.002009454
12.546	0.002009339
12.548	0.002009223
12.55	0.00200913
12.552	0.00200903
12.554	0.002008934
12.556	0.00200882
12.558	0.002008732
12.56	0.00200863
12.562	0.002008542
12.564	0.002008442
12.566	0.002008347
12.568	0.002008247
12.57	0.00200816
12.572	0.002008066
12.574	0.002007962
12.576	0.002007905
12.578	0.002007804
12.58	0.002007687
12.582	0.002007597
12.584	0.002007555
12.586	0.002007476
12.588	0.002007381
12.59	0.002007281
12.592	0.002007221
12.594	0.002007143
12.596	0.002007068
12.598	0.002006966
12.6	0.002006902
12.602	0.002006836
12.604	0.002006757
12.606	0.002006676
12.608	0.002006614
12.61	0.002006543
12.612	0.002006467
12.614	0.002006404
12.616	0.002006315
12.618	0.002006259
12.62	0.00200621
12.622	0.002006138
12.624	0.002006072
12.626	0.002006014
12.628	0.002005963
12.63	0.002005885
12.632	0.002005815
12.634	0.002005763
12.636	0.002005711
12.638	0.002005647
12.64	0.002005579
12.642	0.002005515
12.644	0.002005474
12.646	0.00200542
12.648	0.002005336
12.65	0.002005293
12.652	0.002005232
12.654	0.002005178
12.656	0.002005126
12.658	0.002005081
12.66	0.002005015
12.662	0.00200498
12.664	0.002004892
12.666	0.002004855
12.668	0.002004822
12.67	0.002004778
12.672	0.002004722
12.674	0.002004646
12.676	0.002004601
12.678	0.002004564
12.68	0.00200451
12.682	0.002004446
12.684	0.002004416
12.686	0.002004377
12.688	0.002004321
12.69	0.002004254
12.692	0.002004225
12.694	0.002004164
12.696	0.002004132
12.698	0.002004066
12.7	0.002004039
12.702	0.002003989
12.704	0.00200394
12.706	0.002003876
12.708	0.002003845
12.71	0.002003791
12.712	0.00200376
12.714	0.002003701
12.716	0.002003656
12.718	0.002003618
12.72	0.002003577
12.722	0.002003535
12.724	0.002003493
12.726	0.002003465
12.728	0.002003415
12.73	0.002003373
12.732	0.00200331
12.734	0.002003291
12.736	0.002003263
12.738	0.002003215
12.74	0.002003157
12.742	0.002003138
12.744	0.002003108
12.746	0.002003046
12.748	0.002003011
12.75	0.002002993
12.752	0.002002958
12.754	0.002002922
12.756	0.002002875
12.758	0.002002857
12.76	0.0020028
12.762	0.002002769
12.764	0.002002748
12.766	0.002002709
12.768	0.002002685
12.77	0.002002676
12.772	0.002002602
12.774	0.002002577
12.776	0.002002578
12.778	0.002002549
12.78	0.002002508
12.782	0.002002475
12.784	0.002002454
12.786	0.002002456
12.788	0.002002388
12.79	0.002002349
12.792	0.002002344
12.794	0.002002321
12.796	0.002002285
12.798	0.002002247
12.8	0.002002247
12.802	0.002002205
12.804	0.002002184
12.806	0.002002155
12.808	0.002002137
12.81	0.002002105
12.812	0.002002076
12.814	0.00200205
12.816	0.002002016
12.818	0.002002006
12.82	0.002002001
12.822	0.00200196
12.824	0.00200192
12.826	0.002001895
12.828	0.002001878
12.83	0.002001848
12.832	0.002001829
12.834	0.002001836
12.836	0.002001794
12.838	0.002001755
12.84	0.002001709
12.842	0.002001695
12.844	0.002001685
12.846	0.002001648
12.848	0.002001605
12.85	0.002001592
12.852	0.002001577
12.854	0.002001535
12.856	0.002001501
12.858	0.00200149
12.86	0.002001472
12.862	0.002001467
12.864	0.002001436
12.866	0.00200142
12.868	0.002001392
12.87	0.002001376
12.872	0.002001337
12.874	0.002001299
12.876	0.002001299
12.878	0.002001273
12.88	0.002001228
12.882	0.002001195
12.884	0.002001175
12.886	0.002001176
12.888	0.002001154
12.89	0.002001118
12.892	0.00200111
12.894	0.002001103
12.896	0.002001073
12.898	0.002001033
12.9	0.002001043
12.902	0.00200103
12.904	0.002001006
12.906	0.002000972
12.908	0.00200097
12.91	0.002000956
12.912	0.002000951
12.914	0.002000943
12.916	0.002000926
12.918	0.002000919
12.92	0.002000942
12.922	0.002000943
12.924	0.00200096
12.926	0.002000989
12.928	0.00200104
12.93	0.002001093
12.932	0.002001136
12.934	0.002001237
12.936	0.0020014
12.938	0.0020015
12.94	0.002001672
12.942	0.002001928
12.944	0.002002215
12.946	0.002002541
12.948	0.002002914
12.95	0.00200339
12.952	0.002003893
12.954	0.00200444
12.956	0.002005046
12.958	0.002005718
12.96	0.002006395
12.962	0.002007084
12.964	0.002007782
12.966	0.002008503
12.968	0.002009217
12.97	0.002009951
12.972	0.002010642
12.974	0.00201135
12.976	0.002012016
12.978	0.002012673
12.98	0.002013272
12.982	0.00201382
12.984	0.002014398
12.986	0.002014925
12.988	0.002015384
12.99	0.002015792
12.992	0.002016232
12.994	0.002016635
12.996	0.002017
12.998	0.002017325
13	0.002017645
13.002	0.002017944
13.004	0.002018234
13.006	0.002018468
13.008	0.002018706
13.01	0.00201891
13.012	0.002019088
13.014	0.002019231
13.016	0.002019386
13.018	0.002019507
13.02	0.002019611
13.022	0.0020197
13.024	0.002019773
13.026	0.00201983
13.028	0.002019888
13.03	0.002019923
13.032	0.002019941
13.034	0.002019962
13.036	0.002019976
13.038	0.002019989
13.04	0.002019942
13.042	0.00201994
13.044	0.002019918
13.046	0.002019877
13.048	0.002019829
13.05	0.002019804
13.052	0.002019755
13.054	0.002019695
13.056	0.002019632
13.058	0.002019569
13.06	0.002019486
13.062	0.002019416
13.064	0.002019334
13.066	0.002019251
13.068	0.002019158
13.07	0.002019064
13.072	0.002018953
13.074	0.002018845
13.076	0.002018733
13.078	0.002018628
13.08	0.002018492
13.082	0.002018359
13.084	0.002018245
13.086	0.002018134
13.088	0.002017985
13.09	0.002017819
13.092	0.002017703
13.094	0.002017578
13.096	0.002017426
13.098	0.002017264
13.1	0.002017142
13.102	0.002017001
13.104	0.002016853
13.106	0.002016712
13.108	0.002016587
13.11	0.002016437
13.112	0.002016303
13.114	0.002016164
13.116	0.002016045
13.118	0.00201592
13.12	0.002015811
13.122	0.002015691
13.124	0.002015561
13.126	0.002015453
13.128	0.00201536
13.13	0.002015259
13.132	0.002015131
13.134	0.002015068
13.136	0.002014995
13.138	0.002014905
13.14	0.002014806
13.142	0.00201475
13.144	0.002014704
13.146	0.002014624
13.148	0.002014546
13.15	0.002014509
13.152	0.002014452
13.154	0.002014411
13.156	0.002014353
13.158	0.002014319
13.16	0.002014278
13.162	0.002014228
13.164	0.002014186
13.166	0.002014183
13.168	0.002014137
13.17	0.002014106
13.172	0.002014074
13.174	0.002014025
13.176	0.002014004
13.178	0.002013973
13.18	0.002013927
13.182	0.002013863
13.184	0.002013832
13.186	0.002013789
13.188	0.002013736
13.19	0.002013693
13.192	0.002013654
13.194	0.002013615
13.196	0.002013579
13.198	0.002013494
13.2	0.002013468
13.202	0.002013438
13.204	0.00201336
13.206	0.0020133
13.208	0.002013278
13.21	0.00201322
13.212	0.002013178
13.214	0.002013113
13.216	0.002013089
13.218	0.002013051
13.22	0.002013005
13.222	0.002012979
13.224	0.002012941
13.226	0.002012912
13.228	0.002012892
13.23	0.002012861
13.232	0.002012843
13.234	0.002012827
13.236	0.002012825
13.238	0.002012814
13.24	0.002012786
13.242	0.002012811
13.244	0.002012845
13.246	0.002012811
13.248	0.002012799
13.25	0.002012838
13.252	0.00201283
13.254	0.002012848
13.256	0.00201286
13.258	0.002012881
13.26	0.002012911
13.262	0.002012949
13.264	0.002012956
13.266	0.002013018
13.268	0.002013065
13.27	0.002013132
13.272	0.002013159
13.274	0.002013195
13.276	0.002013259
13.278	0.002013312
13.28	0.002013359
13.282	0.002013415
13.284	0.002013485
13.286	0.002013561
13.288	0.002013615
13.29	0.002013651
13.292	0.002013739
13.294	0.0020138
13.296	0.002013854
13.298	0.00201391
13.3	0.002013972
13.302	0.00201405
13.304	0.002014089
13.306	0.00201414
13.308	0.002014191
13.31	0.002014246
13.312	0.002014291
13.314	0.002014335
13.316	0.002014384
13.318	0.002014421
13.32	0.002014462
13.322	0.002014482
13.324	0.002014502
13.326	0.002014535
13.328	0.002014569
13.33	0.002014569
13.332	0.002014564
13.334	0.002014587
13.336	0.002014596
13.338	0.00201458
13.34	0.00201455
13.342	0.002014554
13.344	0.002014541
13.346	0.002014521
13.348	0.002014456
13.35	0.002014434
13.352	0.002014413
13.354	0.002014382
13.356	0.00201433
13.358	0.002014277
13.36	0.002014232
13.362	0.00201419
13.364	0.002014134
13.366	0.002014079
13.368	0.002013998
13.37	0.002013953
13.372	0.002013855
13.374	0.002013781
13.376	0.002013718
13.378	0.002013658
13.38	0.002013571
13.382	0.002013488
13.384	0.002013396
13.386	0.002013323
13.388	0.002013235
