0.000	0.004018840
0.001	0.004018474
0.002	0.004017898
0.003	0.004017375
0.004	0.004018160
0.005	0.004018055
0.006	0.004018265
0.007	0.004018160
0.008	0.004019363
0.009	0.004018422
0.010	0.004018945
0.011	0.004017846
0.012	0.004017898
0.013	0.004017532
0.014	0.004017846
0.015	0.004018265
0.016	0.004018369
0.017	0.004018055
0.018	0.004017584
0.019	0.004018840
0.020	0.004017532
0.021	0.004017793
0.022	0.004017950
0.023	0.004018474
0.024	0.004018422
0.025	0.004018213
0.026	0.004017689
0.027	0.004017846
0.028	0.004017637
0.029	0.004018107
0.030	0.004017689
0.031	0.004017793
0.032	0.004017375
0.033	0.004017218
0.034	0.004017532
0.035	0.004017323
0.036	0.004018213
0.037	0.004018003
0.038	0.004018160
0.039	0.004018631
0.040	0.004018055
0.041	0.004018107
0.042	0.004018840
0.043	0.004018317
0.044	0.004018369
0.045	0.004018422
0.046	0.004018840
0.047	0.004018160
0.048	0.004019101
0.049	0.004019049
0.050	0.004018213
0.051	0.004018788
0.052	0.004019625
0.053	0.004019625
0.054	0.004019049
0.055	0.004018631
0.056	0.004018788
0.057	0.004020253
0.058	0.004019520
0.059	0.004020357
0.060	0.004020253
0.061	0.004020619
0.062	0.004019363
0.063	0.004019154
0.064	0.004019154
0.065	0.004019730
0.066	0.004019730
0.067	0.004019782
0.068	0.004019887
0.069	0.004019887
0.070	0.004019625
0.071	0.004019939
0.072	0.004020619
0.073	0.004020566
0.074	0.004020253
0.075	0.004020880
0.076	0.004020462
0.077	0.004020619
0.078	0.004021456
0.079	0.004020566
0.080	0.004020985
0.081	0.004021299
0.082	0.004020775
0.083	0.004020566
0.084	0.004020775
0.085	0.004020409
0.086	0.004021247
0.087	0.004021404
0.088	0.004021561
0.089	0.004020514
0.090	0.004021195
0.091	0.004021351
0.092	0.004021979
0.093	0.004020566
0.094	0.004021247
0.095	0.004021508
0.096	0.004020828
0.097	0.004021089
0.098	0.004021351
0.099	0.004020880
0.100	0.004020985
0.101	0.004021299
0.102	0.004021142
0.103	0.004021456
0.104	0.004021142
0.105	0.004020985
0.106	0.004020880
0.107	0.004021874
0.108	0.004021613
0.109	0.004021142
0.110	0.004020880
0.111	0.004021037
0.112	0.004021299
0.113	0.004020880
0.114	0.004020985
0.115	0.004020462
0.116	0.004020775
0.117	0.004020148
0.118	0.004019834
0.119	0.004020357
0.120	0.004019834
0.121	0.004020253
0.122	0.004019206
0.123	0.004019467
0.124	0.004019363
0.125	0.004019311
0.126	0.004019520
0.127	0.004021037
0.128	0.004019520
0.129	0.004020828
0.130	0.004020305
0.131	0.004019991
0.132	0.004019206
0.133	0.004019258
0.134	0.004019311
0.135	0.004018892
0.136	0.004018945
0.137	0.004018997
0.138	0.004018892
0.139	0.004018369
0.140	0.004018892
0.141	0.004019311
0.142	0.004018474
0.143	0.004017793
0.144	0.004018945
0.145	0.004018788
0.146	0.004018474
0.147	0.004018107
0.148	0.004017689
0.149	0.004018892
0.150	0.004018265
0.151	0.004018160
0.152	0.004017480
0.153	0.004016748
0.154	0.004017532
0.155	0.004017689
0.156	0.004017689
0.157	0.004017323
0.158	0.004016748
0.159	0.004016800
0.160	0.004017009
0.161	0.004016643
0.162	0.004015910
0.163	0.004016381
0.164	0.004016852
0.165	0.004016276
0.166	0.004016224
0.167	0.004016381
0.168	0.004015597
0.169	0.004015701
0.170	0.004016590
0.171	0.004015283
0.172	0.004015335
0.173	0.004014759
0.174	0.004014811
0.175	0.004015701
0.176	0.004013870
0.177	0.004013766
0.178	0.004013975
0.179	0.004015125
0.180	0.004014341
0.181	0.004014707
0.182	0.004014759
0.183	0.004014027
0.184	0.004014655
0.185	0.004014289
0.186	0.004013818
0.187	0.004013661
0.188	0.004013190
0.189	0.004014184
0.190	0.004013451
0.191	0.004013975
0.192	0.004013818
0.193	0.004012981
0.194	0.004012824
0.195	0.004013137
0.196	0.004013294
0.197	0.004013347
0.198	0.004013294
0.199	0.004013451
0.200	0.004013975
0.201	0.004012562
0.202	0.004012143
0.203	0.004011934
0.204	0.004012667
0.205	0.004012196
0.206	0.004011725
0.207	0.004011882
0.208	0.004011934
0.209	0.004012143
0.210	0.004011777
0.211	0.004011516
0.212	0.004011725
0.213	0.004011725
0.214	0.004011725
0.215	0.004011359
0.216	0.004011829
0.217	0.004012667
0.218	0.004011620
0.219	0.004011725
0.220	0.004012091
0.221	0.004012196
0.222	0.004011568
0.223	0.004010993
0.224	0.004011411
0.225	0.004011097
0.226	0.004010208
0.227	0.004010941
0.228	0.004010784
0.229	0.004010417
0.230	0.004010784
0.231	0.004011463
0.232	0.004010993
0.233	0.004011045
0.234	0.004010993
0.235	0.004010155
0.236	0.004010678
0.237	0.004010365
0.238	0.004010208
0.239	0.004010260
0.240	0.004010417
0.241	0.004009999
0.242	0.004010626
0.243	0.004010155
0.244	0.004010312
0.245	0.004010208
0.246	0.004010574
0.247	0.004011045
0.248	0.004011045
0.249	0.004010260
0.250	0.004010260
0.251	0.004010417
0.252	0.004010626
0.253	0.004010678
0.254	0.004010365
0.255	0.004010678
0.256	0.004010469
0.257	0.004009894
0.258	0.004009423
0.259	0.004009999
0.260	0.004009423
0.261	0.004009528
0.262	0.004010312
0.263	0.004009894
0.264	0.004010208
0.265	0.004009633
0.266	0.004009842
0.267	0.004009633
0.268	0.004009580
0.269	0.004009267
0.270	0.004009894
0.271	0.004009004
0.272	0.004009267
0.273	0.004009004
0.274	0.004009267
0.275	0.004009267
0.276	0.004009267
0.277	0.004008325
0.278	0.004008534
0.279	0.004008168
0.280	0.004008795
0.281	0.004008272
0.282	0.004009004
0.283	0.004008481
0.284	0.004009109
0.285	0.004008377
0.286	0.004008481
0.287	0.004008847
0.288	0.004008847
0.289	0.004008586
0.290	0.004009004
0.291	0.004008377
0.292	0.004009267
0.293	0.004008325
0.294	0.004008847
0.295	0.004009057
0.296	0.004008168
0.297	0.004008011
0.298	0.004008429
0.299	0.004008638
0.300	0.004008115
0.301	0.004007539
0.302	0.004008481
0.303	0.004008429
0.304	0.004007854
0.305	0.004008691
0.306	0.004008220
0.307	0.004008586
0.308	0.004008377
0.309	0.004009109
0.310	0.004008272
0.311	0.004008377
0.312	0.004007069
0.313	0.004007802
0.314	0.004007383
0.315	0.004007121
0.316	0.004008115
0.317	0.004007959
0.318	0.004007539
0.319	0.004007749
0.320	0.004007278
0.321	0.004007539
0.322	0.004007487
0.323	0.004007173
0.324	0.004007487
0.325	0.004007749
0.326	0.004007802
0.327	0.004007069
0.328	0.004007121
0.329	0.004007487
0.330	0.004007539
0.331	0.004007854
0.332	0.004008115
0.333	0.004007383
0.334	0.004007592
0.335	0.004007854
0.336	0.004007487
0.337	0.004006964
0.338	0.004007487
0.339	0.004007749
0.340	0.004007069
0.341	0.004008377
0.342	0.004007069
0.343	0.004007435
0.344	0.004007121
0.345	0.004007487
0.346	0.004006651
0.347	0.004007226
0.348	0.004006912
0.349	0.004007121
0.350	0.004007278
0.351	0.004007330
0.352	0.004007069
0.353	0.004006807
0.354	0.004007121
0.355	0.004006964
0.356	0.004007330
0.357	0.004006964
0.358	0.004006964
0.359	0.004006441
0.360	0.004007069
0.361	0.004006651
0.362	0.004006389
0.363	0.004006337
0.364	0.004006285
0.365	0.004005970
0.366	0.004005918
0.367	0.004006179
0.368	0.004005552
0.369	0.004006337
0.370	0.004006755
0.371	0.004005395
0.372	0.004005761
0.373	0.004005970
0.374	0.004005761
0.375	0.004005865
0.376	0.004006127
0.377	0.004006441
0.378	0.004007017
0.379	0.004006232
0.380	0.004006285
0.381	0.004006285
0.382	0.004006598
0.383	0.004006389
0.384	0.004005865
0.385	0.004006022
0.386	0.004006285
0.387	0.004005865
0.388	0.004005709
0.389	0.004005970
0.390	0.004005238
0.391	0.004006179
0.392	0.004005761
0.393	0.004006022
0.394	0.004006232
0.395	0.004005813
0.396	0.004006755
0.397	0.004006179
0.398	0.004005395
0.399	0.004006127
0.400	0.004006127
0.401	0.004005813
0.402	0.004005343
0.403	0.004005499
0.404	0.004005290
0.405	0.004005970
0.406	0.004005238
0.407	0.004005186
0.408	0.004005395
0.409	0.004004401
0.410	0.004004610
0.411	0.004006127
0.412	0.004005552
0.413	0.004005709
0.414	0.004006389
0.415	0.004006598
0.416	0.004005604
0.417	0.004005552
0.418	0.004005081
0.419	0.004005343
0.420	0.004005761
0.421	0.004005029
0.422	0.004004662
0.423	0.004005029
0.424	0.004005290
0.425	0.004005761
0.426	0.004005709
0.427	0.004004820
0.428	0.004005343
0.429	0.004005343
0.430	0.004005813
0.431	0.004004924
0.432	0.004005761
0.433	0.004005029
0.434	0.004005081
0.435	0.004005395
0.436	0.004005395
0.437	0.004005029
0.438	0.004004662
0.439	0.004004924
0.440	0.004004714
0.441	0.004004453
0.442	0.004004296
0.443	0.004004610
0.444	0.004004244
0.445	0.004004505
0.446	0.004004453
0.447	0.004004977
0.448	0.004005499
0.449	0.004004662
0.450	0.004004505
0.451	0.004004767
0.452	0.004003825
0.453	0.004004714
0.454	0.004004244
0.455	0.004004662
0.456	0.004004401
0.457	0.004003825
0.458	0.004004087
0.459	0.004004035
0.460	0.004003930
0.461	0.004004087
0.462	0.004003930
0.463	0.004003616
0.464	0.004004035
0.465	0.004002936
0.466	0.004003721
0.467	0.004003197
0.468	0.004003721
0.469	0.004002674
0.470	0.004003040
0.471	0.004003355
0.472	0.004002779
0.473	0.004003773
0.474	0.004002831
0.475	0.004002831
0.476	0.004003721
0.477	0.004002622
0.478	0.004002151
0.479	0.004002047
0.480	0.004002465
0.481	0.004002465
0.482	0.004003093
0.483	0.004002831
0.484	0.004002674
0.485	0.004002099
0.486	0.004002831
0.487	0.004002674
0.488	0.004002517
0.489	0.004002674
0.490	0.004003145
0.491	0.004002047
0.492	0.004001575
0.493	0.004002727
0.494	0.004002517
0.495	0.004002570
0.496	0.004002465
0.497	0.004002047
0.498	0.004002256
0.499	0.004002099
0.500	0.004001314
0.501	0.004002570
0.502	0.004001890
0.503	0.004001942
0.504	0.004001890
0.505	0.004002308
0.506	0.004001419
0.507	0.004001366
0.508	0.004001838
0.509	0.004000634
0.510	0.004001523
0.511	0.004001262
0.512	0.004002256
0.513	0.004001785
0.514	0.004001523
0.515	0.004002517
0.516	0.004001628
0.517	0.004001523
0.518	0.004001209
0.519	0.004001262
0.520	0.004001366
0.521	0.004000791
0.522	0.004001523
0.523	0.004001471
0.524	0.004001523
0.525	0.004002099
0.526	0.004002256
0.527	0.004002099
0.528	0.004001471
0.529	0.004001732
0.530	0.004001838
0.531	0.004001995
0.532	0.004001732
0.533	0.004002727
0.534	0.004001995
0.535	0.004002936
0.536	0.004002883
0.537	0.004004035
0.538	0.004003930
0.539	0.004004087
0.540	0.004003669
0.541	0.004004977
0.542	0.004006022
0.543	0.004006441
0.544	0.004006494
0.545	0.004006285
0.546	0.004008481
0.547	0.004009580
0.548	0.004010208
0.549	0.004009476
0.550	0.004010051
0.551	0.004011516
0.552	0.004012981
0.553	0.004012667
0.554	0.004012249
0.555	0.004012824
0.556	0.004014445
0.557	0.004016695
0.558	0.004017166
0.559	0.004017009
0.560	0.004017009
0.561	0.004018840
0.562	0.004021247
0.563	0.004021508
0.564	0.004021874
0.565	0.004022293
0.566	0.004024595
0.567	0.004026897
0.568	0.004027051
0.569	0.004027051
0.570	0.004026846
0.571	0.004028937
0.572	0.004031029
0.573	0.004031131
0.574	0.004031080
0.575	0.004031603
0.576	0.004034011
0.577	0.004036523
0.578	0.004036626
0.579	0.004036840
0.580	0.004036789
0.581	0.004038829
0.582	0.004041649
0.583	0.004040971
0.584	0.004042274
0.585	0.004041391
0.586	0.004044006
0.587	0.004045729
0.588	0.004046046
0.589	0.004045574
0.590	0.004045523
0.591	0.004047460
0.592	0.004049234
0.593	0.004049234
0.594	0.004049654
0.595	0.004049500
0.596	0.004051171
0.597	0.004052843
0.598	0.004052586
0.599	0.004052423
0.600	0.004053734
0.601	0.004053734
0.602	0.004054831
0.603	0.004054934
0.604	0.004054523
0.605	0.004053889
0.606	0.004055097
0.607	0.004056143
0.608	0.004055980
0.609	0.004056194
0.610	0.004056511
0.611	0.004055826
0.612	0.004055354
0.613	0.004055354
0.614	0.004055517
0.615	0.004056040
0.616	0.004056511
0.617	0.004056820
0.618	0.004055200
0.619	0.004055826
0.620	0.004055723
0.621	0.004055406
0.622	0.004055149
0.623	0.004054574
0.624	0.004055251
0.625	0.004055354
0.626	0.004054154
0.627	0.004052534
0.628	0.004053006
0.629	0.004052843
0.630	0.004052371
0.631	0.004050854
0.632	0.004051377
0.633	0.004049551
0.634	0.004049449
0.635	0.004049706
0.636	0.004049757
0.637	0.004048660
0.638	0.004049500
0.639	0.004048711
0.640	0.004048506
0.641	0.004046620
0.642	0.004046251
0.643	0.004045626
0.644	0.004045523
0.645	0.004045831
0.646	0.004044631
0.647	0.004043320
0.648	0.004042746
0.649	0.004043380
0.650	0.004043063
0.651	0.004041966
0.652	0.004040757
0.653	0.004040706
0.654	0.004040971
0.655	0.004041494
0.656	0.004040029
0.657	0.004039763
0.658	0.004038880
0.659	0.004038983
0.660	0.004039660
0.661	0.004038880
0.662	0.004037569
0.663	0.004037834
0.664	0.004037937
0.665	0.004038246
0.666	0.004036471
0.667	0.004035477
0.668	0.004035160
0.669	0.004035160
0.670	0.004035794
0.671	0.004035109
0.672	0.004035109
0.673	0.004034380
0.674	0.004035323
0.675	0.004034114
0.676	0.004033857
0.677	0.004033591
0.678	0.004034277
0.679	0.004033223
0.680	0.004033857
0.681	0.004033120
0.682	0.004032760
0.683	0.004032760
0.684	0.004032023
0.685	0.004032126
0.686	0.004032494
0.687	0.004032074
0.688	0.004031397
0.689	0.004031346
0.690	0.004031766
0.691	0.004032074
0.692	0.004031817
0.693	0.004031500
0.694	0.004031243
0.695	0.004031346
0.696	0.004031500
0.697	0.004031131
0.698	0.004030977
0.699	0.004030660
0.700	0.004030137
0.701	0.004031080
0.702	0.004031397
0.703	0.004030506
0.704	0.004029829
0.705	0.004030977
0.706	0.004030711
0.707	0.004030137
0.708	0.004030926
0.709	0.004030977
0.710	0.004030506
0.711	0.004030351
0.712	0.004031029
0.713	0.004030249
0.714	0.004031080
0.715	0.004031029
0.716	0.004030771
0.717	0.004030086
0.718	0.004030249
0.719	0.004031131
0.720	0.004030660
0.721	0.004029983
0.722	0.004029931
0.723	0.004030557
0.724	0.004030711
0.725	0.004030557
0.726	0.004030609
0.727	0.004030771
0.728	0.004030977
0.729	0.004030926
0.730	0.004030771
0.731	0.004030771
0.732	0.004031131
0.733	0.004032391
0.734	0.004032597
0.735	0.004031500
0.736	0.004030823
0.737	0.004031654
0.738	0.004031500
0.739	0.004031449
0.740	0.004031243
0.741	0.004032074
0.742	0.004033069
0.743	0.004032289
0.744	0.004032546
0.745	0.004032597
0.746	0.004032126
0.747	0.004032811
0.748	0.004032760
0.749	0.004033017
0.750	0.004031971
0.751	0.004032914
0.752	0.004033017
0.753	0.004032229
0.754	0.004032760
0.755	0.004031500
0.756	0.004032966
0.757	0.004032863
0.758	0.004032494
0.759	0.004032546
0.760	0.004032340
0.761	0.004032229
0.762	0.004032126
0.763	0.004032597
0.764	0.004032177
0.765	0.004031869
0.766	0.004031603
0.767	0.004032023
0.768	0.004032391
0.769	0.004032023
0.770	0.004032126
0.771	0.004032023
0.772	0.004031817
0.773	0.004031080
0.774	0.004030771
0.775	0.004030874
0.776	0.004031706
0.777	0.004031397
0.778	0.004031603
0.779	0.004031346
0.780	0.004030609
0.781	0.004031183
0.782	0.004030086
0.783	0.004030609
0.784	0.004031029
0.785	0.004029726
0.786	0.004029880
0.787	0.004029777
0.788	0.004029409
0.789	0.004029306
0.790	0.004029409
0.791	0.004028149
0.792	0.004027840
0.793	0.004028363
0.794	0.004027737
0.795	0.004028414
0.796	0.004026743
0.797	0.004025954
0.798	0.004026057
0.799	0.004026529
0.800	0.004026323
0.801	0.004026529
0.802	0.004026220
0.803	0.004025170
0.804	0.004024961
0.805	0.004025536
0.806	0.004024333
0.807	0.004023548
0.808	0.004023130
0.809	0.004023496
0.810	0.004022921
0.811	0.004022659
0.812	0.004022345
0.813	0.004021874
0.814	0.004022554
0.815	0.004022449
0.816	0.004022136
0.817	0.004021717
0.818	0.004022293
0.819	0.004022136
0.820	0.004022083
0.821	0.004021404
0.822	0.004019887
0.823	0.004019834
0.824	0.004019730
0.825	0.004020305
0.826	0.004019991
0.827	0.004020096
0.828	0.004019363
0.829	0.004019834
0.830	0.004019206
0.831	0.004019415
0.832	0.004018840
0.833	0.004019415
0.834	0.004018997
0.835	0.004019101
0.836	0.004018107
0.837	0.004017689
0.838	0.004017532
0.839	0.004017846
0.840	0.004018160
0.841	0.004018265
0.842	0.004017375
0.843	0.004017637
0.844	0.004017846
0.845	0.004017741
0.846	0.004017271
0.847	0.004017898
0.848	0.004017375
0.849	0.004018160
0.850	0.004017689
0.851	0.004017323
0.852	0.004018265
0.853	0.004018213
0.854	0.004017009
0.855	0.004017846
0.856	0.004017114
0.857	0.004017114
0.858	0.004016172
0.859	0.004017009
0.860	0.004017166
0.861	0.004017061
0.862	0.004016748
0.863	0.004016800
0.864	0.004016695
0.865	0.004016276
0.866	0.004017898
0.867	0.004017898
0.868	0.004017846
0.869	0.004018265
0.870	0.004017793
0.871	0.004018213
0.872	0.004017898
0.873	0.004018422
0.874	0.004018003
0.875	0.004017793
0.876	0.004018369
0.877	0.004018474
0.878	0.004017950
0.879	0.004018474
0.880	0.004017793
0.881	0.004018683
0.882	0.004019258
0.883	0.004019782
0.884	0.004018788
0.885	0.004019049
0.886	0.004019311
0.887	0.004020775
0.888	0.004019415
0.889	0.004019939
0.890	0.004019625
0.891	0.004019939
0.892	0.004018788
0.893	0.004019730
0.894	0.004019520
0.895	0.004018892
0.896	0.004019467
0.897	0.004020253
0.898	0.004020566
0.899	0.004019311
0.900	0.004020200
0.901	0.004019782
0.902	0.004021089
0.903	0.004020775
0.904	0.004020775
0.905	0.004021299
0.906	0.004020462
0.907	0.004020514
0.908	0.004020305
0.909	0.004020619
0.910	0.004020619
0.911	0.004020514
0.912	0.004021351
0.913	0.004020096
0.914	0.004020619
0.915	0.004021299
0.916	0.004020775
0.917	0.004020985
0.918	0.004021142
0.919	0.004021665
0.920	0.004021665
0.921	0.004021665
0.922	0.004021874
0.923	0.004021561
0.924	0.004021456
0.925	0.004022345
0.926	0.004021195
0.927	0.004021351
0.928	0.004020096
0.929	0.004020566
0.930	0.004021456
0.931	0.004020775
0.932	0.004020514
0.933	0.004021142
0.934	0.004021874
0.935	0.004021351
0.936	0.004021822
0.937	0.004021561
0.938	0.004021089
0.939	0.004020932
0.940	0.004021142
0.941	0.004021195
0.942	0.004020566
0.943	0.004020253
0.944	0.004021874
0.945	0.004020357
0.946	0.004021613
0.947	0.004021089
0.948	0.004020566
0.949	0.004021247
0.950	0.004020566
0.951	0.004020253
0.952	0.004020880
0.953	0.004020775
0.954	0.004020305
0.955	0.004020514
0.956	0.004020305
0.957	0.004019363
0.958	0.004020043
0.959	0.004019258
0.960	0.004020305
0.961	0.004019834
0.962	0.004018735
0.963	0.004019625
0.964	0.004018945
0.965	0.004019363
0.966	0.004018840
0.967	0.004018892
0.968	0.004019730
0.969	0.004019625
0.970	0.004018579
0.971	0.004018840
0.972	0.004018003
0.973	0.004017637
0.974	0.004018107
0.975	0.004018683
0.976	0.004018317
0.977	0.004016957
0.978	0.004017637
0.979	0.004017009
0.980	0.004016957
0.981	0.004017375
0.982	0.004017323
0.983	0.004016957
0.984	0.004016800
0.985	0.004016590
0.986	0.004017480
0.987	0.004017061
0.988	0.004017009
0.989	0.004017323
0.990	0.004017218
0.991	0.004017271
0.992	0.004015806
0.993	0.004015283
0.994	0.004015335
0.995	0.004015753
0.996	0.004015649
0.997	0.004014393
0.998	0.004015125
0.999	0.004014864
1.000	0.004014811
1.001	0.004014707
1.002	0.004015387
1.003	0.004015335
1.004	0.004014864
1.005	0.004014916
1.006	0.004014341
1.007	0.004014864
1.008	0.004014655
1.009	0.004014445
1.010	0.004013975
1.011	0.004014184
1.012	0.004013347
1.013	0.004014027
1.014	0.004013923
1.015	0.004013556
1.016	0.004013818
1.017	0.004013033
1.018	0.004012928
1.019	0.004013451
1.020	0.004012981
1.021	0.004012771
1.022	0.004013608
1.023	0.004013556
1.024	0.004013451
1.025	0.004012667
1.026	0.004013294
1.027	0.004012719
1.028	0.004012458
1.029	0.004012928
1.030	0.004012510
1.031	0.004012719
1.032	0.004012562
1.033	0.004012667
1.034	0.004012091
1.035	0.004012458
1.036	0.004011934
1.037	0.004012249
1.038	0.004011829
1.039	0.004011307
1.040	0.004011882
1.041	0.004011725
1.042	0.004011725
1.043	0.004012039
1.044	0.004011568
1.045	0.004011620
1.046	0.004010626
1.047	0.004010941
1.048	0.004011829
1.049	0.004011097
1.050	0.004010784
1.051	0.004011097
1.052	0.004011254
1.053	0.004011202
1.054	0.004011359
1.055	0.004011097
1.056	0.004010469
1.057	0.004010312
1.058	0.004011620
1.059	0.004010784
1.060	0.004011045
1.061	0.004010784
1.062	0.004011202
1.063	0.004010626
1.064	0.004010941
1.065	0.004011097
1.066	0.004011516
1.067	0.004010051
1.068	0.004010417
1.069	0.004010784
1.070	0.004009528
1.071	0.004010155
1.072	0.004009894
1.073	0.004010417
1.074	0.004009946
1.075	0.004010155
1.076	0.004010103
1.077	0.004009946
1.078	0.004010260
1.079	0.004010103
1.080	0.004009946
1.081	0.004009894
1.082	0.004009685
1.083	0.004009528
1.084	0.004009528
1.085	0.004009633
1.086	0.004009999
1.087	0.004009685
1.088	0.004009476
1.089	0.004009319
1.090	0.004009737
1.091	0.004009371
1.092	0.004009371
1.093	0.004009894
1.094	0.004009319
1.095	0.004009371
1.096	0.004009737
1.097	0.004009004
1.098	0.004009214
1.099	0.004009842
1.100	0.004010312
1.101	0.004008691
1.102	0.004009476
1.103	0.004009109
1.104	0.004008691
1.105	0.004009057
1.106	0.004008952
1.107	0.004008691
1.108	0.004009371
1.109	0.004009214
1.110	0.004008795
1.111	0.004009004
1.112	0.004008691
1.113	0.004008638
1.114	0.004009109
1.115	0.004008638
1.116	0.004008847
1.117	0.004009057
1.118	0.004008795
1.119	0.004008586
1.120	0.004009004
1.121	0.004008952
1.122	0.004008377
1.123	0.004008534
1.124	0.004008168
1.125	0.004008638
1.126	0.004008325
1.127	0.004009057
1.128	0.004008847
1.129	0.004009371
1.130	0.004008168
1.131	0.004008115
1.132	0.004008586
1.133	0.004008847
1.134	0.004008481
1.135	0.004008481
1.136	0.004008429
1.137	0.004007959
1.138	0.004007121
1.139	0.004007959
1.140	0.004008377
1.141	0.004008063
1.142	0.004007487
1.143	0.004008115
1.144	0.004007959
1.145	0.004007959
1.146	0.004008115
1.147	0.004007802
1.148	0.004008481
1.149	0.004008377
1.150	0.004008900
1.151	0.004007696
1.152	0.004007854
1.153	0.004008011
1.154	0.004008429
1.155	0.004007906
1.156	0.004008691
1.157	0.004008063
1.158	0.004008325
1.159	0.004007696
1.160	0.004008220
1.161	0.004007749
1.162	0.004007592
1.163	0.004006964
1.164	0.004007487
1.165	0.004007017
1.166	0.004007906
1.167	0.004007959
1.168	0.004007959
1.169	0.004008063
1.170	0.004007487
1.171	0.004008011
1.172	0.004007017
1.173	0.004007121
1.174	0.004007121
1.175	0.004007487
1.176	0.004007121
1.177	0.004007226
1.178	0.004006022
1.179	0.004006860
1.180	0.004007017
1.181	0.004007383
1.182	0.004007330
1.183	0.004006860
1.184	0.004006703
1.185	0.004006912
1.186	0.004007906
1.187	0.004007278
1.188	0.004007383
1.189	0.004006651
1.190	0.004007226
1.191	0.004006912
1.192	0.004006651
1.193	0.004006860
1.194	0.004006651
1.195	0.004006755
1.196	0.004006285
1.197	0.004006703
1.198	0.004006285
1.199	0.004006285
1.200	0.004006494
1.201	0.004006494
1.202	0.004006912
1.203	0.004006703
1.204	0.004006389
1.205	0.004007226
1.206	0.004006651
1.207	0.004005918
1.208	0.004006285
1.209	0.004006441
1.210	0.004006127
1.211	0.004006441
1.212	0.004006337
1.213	0.004006912
1.214	0.004006389
1.215	0.004005918
1.216	0.004006127
1.217	0.004005970
1.218	0.004006075
1.219	0.004006179
1.220	0.004006232
1.221	0.004006285
1.222	0.004005970
1.223	0.004006179
1.224	0.004007017
1.225	0.004006075
1.226	0.004006075
1.227	0.004005656
1.228	0.004005029
1.229	0.004005970
1.230	0.004005813
1.231	0.004005918
1.232	0.004005133
1.233	0.004005813
1.234	0.004005133
1.235	0.004005238
1.236	0.004005918
1.237	0.004005709
1.238	0.004005656
1.239	0.004006179
1.240	0.004006285
1.241	0.004005604
1.242	0.004005865
1.243	0.004005918
1.244	0.004005970
1.245	0.004005970
1.246	0.004005865
1.247	0.004005865
1.248	0.004005343
1.249	0.004005290
1.250	0.004005970
1.251	0.004005029
1.252	0.004004820
1.253	0.004004191
1.254	0.004004714
1.255	0.004004191
1.256	0.004004662
1.257	0.004005081
1.258	0.004004872
1.259	0.004004505
1.260	0.004005133
1.261	0.004005343
1.262	0.004005029
1.263	0.004005133
1.264	0.004005343
1.265	0.004004767
1.266	0.004005238
1.267	0.004004453
1.268	0.004004191
1.269	0.004004714
1.270	0.004004244
1.271	0.004004453
1.272	0.004004662
1.273	0.004004662
1.274	0.004004453
1.275	0.004004087
1.276	0.004003878
1.277	0.004004820
1.278	0.004004087
1.279	0.004004662
1.280	0.004004139
1.281	0.004004767
1.282	0.004003616
1.283	0.004003721
1.284	0.004003564
1.285	0.004003197
1.286	0.004003564
1.287	0.004002674
1.288	0.004002988
1.289	0.004002674
1.290	0.004002831
1.291	0.004002413
1.292	0.004003355
1.293	0.004004035
1.294	0.004003145
1.295	0.004003721
1.296	0.004002936
1.297	0.004003145
1.298	0.004003878
1.299	0.004003250
1.300	0.004003669
1.301	0.004002779
1.302	0.004003407
1.303	0.004003093
1.304	0.004003145
1.305	0.004002413
1.306	0.004002099
1.307	0.004002099
1.308	0.004001942
1.309	0.004002674
1.310	0.004002413
1.311	0.004002465
1.312	0.004002413
1.313	0.004002413
1.314	0.004002099
1.315	0.004001995
1.316	0.004001680
1.317	0.004002308
1.318	0.004001680
1.319	0.004001314
1.320	0.004002413
1.321	0.004002256
1.322	0.004000791
1.323	0.004001053
1.324	0.004000791
1.325	0.004001890
1.326	0.004001628
1.327	0.004001366
1.328	0.004001785
1.329	0.004001995
1.330	0.004001838
1.331	0.004001680
1.332	0.004002779
1.333	0.004001785
1.334	0.004002361
1.335	0.004001995
1.336	0.004001942
1.337	0.004001838
1.338	0.004002308
1.339	0.004002308
1.340	0.004001575
1.341	0.004002674
1.342	0.004002570
1.343	0.004002256
1.344	0.004002151
1.345	0.004001680
1.346	0.004002256
1.347	0.004002465
1.348	0.004003250
1.349	0.004002099
1.350	0.004001995
1.351	0.004003197
1.352	0.004003773
1.353	0.004003930
1.354	0.004003093
1.355	0.004003930
1.356	0.004003773
1.357	0.004004557
1.358	0.004004820
1.359	0.004004557
1.360	0.004004139
1.361	0.004004872
1.362	0.004005865
1.363	0.004005343
1.364	0.004005343
1.365	0.004005970
1.366	0.004006807
1.367	0.004008586
1.368	0.004007330
1.369	0.004007539
1.370	0.004008377
1.371	0.004009476
1.372	0.004011463
1.373	0.004011463
1.374	0.004011150
1.375	0.004011202
1.376	0.004013399
1.377	0.004015492
1.378	0.004014655
1.379	0.004015125
1.380	0.004015387
1.381	0.004016800
1.382	0.004019887
1.383	0.004019782
1.384	0.004020043
1.385	0.004019939
1.386	0.004022449
1.387	0.004025851
1.388	0.004025379
1.389	0.004024961
1.390	0.004025903
1.391	0.004027626
1.392	0.004029880
1.393	0.004030034
1.394	0.004030823
1.395	0.004029460
1.396	0.004031654
1.397	0.004035949
1.398	0.004035057
1.399	0.004034740
1.400	0.004035323
1.401	0.004037723
1.402	0.004039977
1.403	0.004039660
1.404	0.004039351
1.405	0.004039763
1.406	0.004042591
1.407	0.004044057
1.408	0.004044529
1.409	0.004044786
1.410	0.004044529
1.411	0.004046414
1.412	0.004048506
1.413	0.004049500
1.414	0.004048711
1.415	0.004049286
1.416	0.004051017
1.417	0.004052166
1.418	0.004051694
1.419	0.004051797
1.420	0.004052637
1.421	0.004052586
1.422	0.004054051
1.423	0.004054523
1.424	0.004054729
1.425	0.004054626
1.426	0.004056194
1.427	0.004056451
1.428	0.004057291
1.429	0.004056923
1.430	0.004056717
1.431	0.004057240
1.432	0.004057343
1.433	0.004056974
1.434	0.004057240
1.435	0.004056769
1.436	0.004056614
1.437	0.004056451
1.438	0.004056297
1.439	0.004057240
1.440	0.004056511
1.441	0.004055723
1.442	0.004055097
1.443	0.004055929
1.444	0.004055826
1.445	0.004055569
1.446	0.004054729
1.447	0.004054309
1.448	0.004054257
1.449	0.004054574
1.450	0.004055046
1.451	0.004053683
1.452	0.004052320
1.453	0.004052483
1.454	0.004053057
1.455	0.004052320
1.456	0.004051643
1.457	0.004049757
1.458	0.004049389
1.459	0.004050494
1.460	0.004049551
1.461	0.004048977
1.462	0.004047194
1.463	0.004047511
1.464	0.004048034
1.465	0.004048240
1.466	0.004046251
1.467	0.004045103
1.468	0.004045574
1.469	0.004045831
1.470	0.004044786
1.471	0.004044529
1.472	0.004042960
1.473	0.004043063
1.474	0.004042386
1.475	0.004042591
1.476	0.004041229
1.477	0.004041177
1.478	0.004040757
1.479	0.004040603
1.480	0.004040603
1.481	0.004040809
1.482	0.004039609
1.483	0.004039351
1.484	0.004039240
1.485	0.004039609
1.486	0.004038717
1.487	0.004037671
1.488	0.004038143
1.489	0.004037886
1.490	0.004037723
1.491	0.004036840
1.492	0.004036051
1.493	0.004036103
1.494	0.004035949
1.495	0.004035949
1.496	0.004036103
1.497	0.004035006
1.498	0.004034740
1.499	0.004034954
1.500	0.004035477
1.501	0.004034534
1.502	0.004033857
1.503	0.004033120
1.504	0.004033960
1.505	0.004033909
1.506	0.004033857
1.507	0.004033489
1.508	0.004032811
1.509	0.004033017
1.510	0.004032340
1.511	0.004033437
1.512	0.004032229
1.513	0.004032811
1.514	0.004032229
1.515	0.004032760
1.516	0.004032494
1.517	0.004033017
1.518	0.004032340
1.519	0.004032863
1.520	0.004033069
1.521	0.004032443
1.522	0.004032443
1.523	0.004031449
1.524	0.004032494
1.525	0.004032074
1.526	0.004031869
1.527	0.004031603
1.528	0.004031766
1.529	0.004032229
1.530	0.004032074
1.531	0.004031869
1.532	0.004031869
1.533	0.004031920
1.534	0.004031346
1.535	0.004031397
1.536	0.004032023
1.537	0.004031971
1.538	0.004031603
1.539	0.004032391
1.540	0.004031603
1.541	0.004032177
1.542	0.004031920
1.543	0.004032914
1.544	0.004032966
1.545	0.004032391
1.546	0.004032391
1.547	0.004031294
1.548	0.004032289
1.549	0.004031603
1.550	0.004031766
1.551	0.004032443
1.552	0.004033437
1.553	0.004033223
1.554	0.004033334
1.555	0.004032597
1.556	0.004032443
1.557	0.004033540
1.558	0.004033069
1.559	0.004033754
1.560	0.004033283
1.561	0.004032700
1.562	0.004032597
1.563	0.004033437
1.564	0.004032811
1.565	0.004032700
1.566	0.004032494
1.567	0.004032966
1.568	0.004032966
1.569	0.004033223
1.570	0.004033120
1.571	0.004033386
1.572	0.004033909
1.573	0.004033489
1.574	0.004033909
1.575	0.004034483
1.576	0.004033643
1.577	0.004033489
1.578	0.004033386
1.579	0.004033960
1.580	0.004034011
1.581	0.004033437
1.582	0.004034114
1.583	0.004033437
1.584	0.004033909
1.585	0.004033857
1.586	0.004034217
1.587	0.004033223
1.588	0.004034277
1.589	0.004033754
1.590	0.004034217
1.591	0.004033754
1.592	0.004033334
1.593	0.004033069
1.594	0.004032443
1.595	0.004032289
1.596	0.004032289
1.597	0.004032177
1.598	0.004032914
1.599	0.004031971
1.600	0.004032177
1.601	0.004032126
1.602	0.004031500
1.603	0.004031706
1.604	0.004032074
1.605	0.004031766
1.606	0.004031397
1.607	0.004030823
1.608	0.004030823
1.609	0.004030711
1.610	0.004031243
1.611	0.004031080
1.612	0.004029983
1.613	0.004029880
1.614	0.004030823
1.615	0.004030086
1.616	0.004029254
1.617	0.004028886
1.618	0.004028783
1.619	0.004028209
1.620	0.004028046
1.621	0.004028209
1.622	0.004027317
1.623	0.004027891
1.624	0.004027051
1.625	0.004026743
1.626	0.004026580
1.627	0.004025800
1.628	0.004026160
1.629	0.004026426
1.630	0.004025800
1.631	0.004024647
1.632	0.004023705
1.633	0.004023967
1.634	0.004023705
1.635	0.004023705
1.636	0.004024177
1.637	0.004023078
1.638	0.004023496
1.639	0.004022816
1.640	0.004023601
1.641	0.004022816
1.642	0.004021665
1.643	0.004021717
1.644	0.004021613
1.645	0.004021822
1.646	0.004020723
1.647	0.004020462
1.648	0.004020305
1.649	0.004020409
1.650	0.004020357
1.651	0.004020514
1.652	0.004019887
1.653	0.004019887
1.654	0.004019520
1.655	0.004019625
1.656	0.004019834
1.657	0.004019834
1.658	0.004018892
1.659	0.004019258
1.660	0.004018892
1.661	0.004018892
1.662	0.004019154
1.663	0.004018997
1.664	0.004019730
1.665	0.004018788
1.666	0.004018213
1.667	0.004018422
1.668	0.004017898
1.669	0.004017846
1.670	0.004017793
1.671	0.004018474
1.672	0.004019101
1.673	0.004019049
1.674	0.004018265
1.675	0.004018474
1.676	0.004018892
1.677	0.004017741
1.678	0.004018160
1.679	0.004017689
1.680	0.004018213
1.681	0.004017846
1.682	0.004017898
1.683	0.004017898
1.684	0.004017584
1.685	0.004017898
1.686	0.004018003
1.687	0.004018631
1.688	0.004018107
1.689	0.004017480
1.690	0.004018213
1.691	0.004018474
1.692	0.004018265
1.693	0.004018160
1.694	0.004018997
1.695	0.004018107
1.696	0.004018840
1.697	0.004018107
1.698	0.004018735
1.699	0.004018160
1.700	0.004018683
1.701	0.004018631
1.702	0.004017689
1.703	0.004018160
1.704	0.004018369
1.705	0.004018631
1.706	0.004019101
1.707	0.004018892
1.708	0.004019101
1.709	0.004019154
1.710	0.004019311
1.711	0.004019782
1.712	0.004020148
1.713	0.004019730
1.714	0.004019939
1.715	0.004019677
1.716	0.004019991
1.717	0.004019467
1.718	0.004019258
1.719	0.004019101
1.720	0.004019730
1.721	0.004019625
1.722	0.004020723
1.723	0.004020305
1.724	0.004020043
1.725	0.004019467
1.726	0.004020566
1.727	0.004021351
1.728	0.004021247
1.729	0.004021299
1.730	0.004020619
1.731	0.004020985
1.732	0.004021456
1.733	0.004021089
1.734	0.004021089
1.735	0.004020619
1.736	0.004021089
1.737	0.004021142
1.738	0.004021299
1.739	0.004020775
1.740	0.004021404
1.741	0.004021508
1.742	0.004022083
1.743	0.004021874
1.744	0.004021195
1.745	0.004021299
1.746	0.004021247
1.747	0.004022240
1.748	0.004022397
1.749	0.004021404
1.750	0.004022136
1.751	0.004022449
1.752	0.004021456
1.753	0.004021717
1.754	0.004021561
1.755	0.004021351
1.756	0.004022397
1.757	0.004021351
1.758	0.004021717
1.759	0.004021456
1.760	0.004022188
1.761	0.004021874
1.762	0.004021247
1.763	0.004021508
1.764	0.004022031
1.765	0.004021299
1.766	0.004020828
1.767	0.004021299
1.768	0.004021456
1.769	0.004020985
1.770	0.004020985
1.771	0.004020932
1.772	0.004020566
1.773	0.004020880
1.774	0.004020409
1.775	0.004020775
1.776	0.004020462
1.777	0.004020880
1.778	0.004020828
1.779	0.004020462
1.780	0.004020775
1.781	0.004021037
1.782	0.004020096
1.783	0.004019991
1.784	0.004020514
1.785	0.004020148
1.786	0.004020200
1.787	0.004019206
1.788	0.004020253
1.789	0.004019730
1.790	0.004019415
1.791	0.004019677
1.792	0.004018892
1.793	0.004018631
1.794	0.004018945
1.795	0.004019311
1.796	0.004019625
1.797	0.004018892
1.798	0.004018369
1.799	0.004018579
1.800	0.004019049
1.801	0.004018474
1.802	0.004017061
1.803	0.004017741
1.804	0.004017532
1.805	0.004018213
1.806	0.004016748
1.807	0.004016433
1.808	0.004017637
1.809	0.004017114
1.810	0.004016748
1.811	0.004017480
1.812	0.004016590
1.813	0.004017166
1.814	0.004016590
1.815	0.004017950
1.816	0.004016957
1.817	0.004016381
1.818	0.004016433
1.819	0.004016224
1.820	0.004016276
1.821	0.004015753
1.822	0.004016119
1.823	0.004016172
1.824	0.004015910
1.825	0.004015335
1.826	0.004014916
1.827	0.004015701
1.828	0.004015125
1.829	0.004015125
1.830	0.004014759
1.831	0.004015125
1.832	0.004014864
1.833	0.004015021
1.834	0.004014916
1.835	0.004014759
1.836	0.004014341
1.837	0.004014341
1.838	0.004014184
1.839	0.004013713
1.840	0.004013608
1.841	0.004013818
1.842	0.004013923
1.843	0.004013870
1.844	0.004014341
1.845	0.004013870
1.846	0.004013294
1.847	0.004013294
1.848	0.004013556
1.849	0.004012510
1.850	0.004013556
1.851	0.004013137
1.852	0.004012458
1.853	0.004013347
1.854	0.004013137
1.855	0.004013451
1.856	0.004012771
1.857	0.004012771
1.858	0.004012353
1.859	0.004012353
1.860	0.004012458
1.861	0.004012143
1.862	0.004012615
1.863	0.004011777
1.864	0.004012249
1.865	0.004012719
1.866	0.004011725
1.867	0.004012039
1.868	0.004011516
1.869	0.004012615
1.870	0.004011673
1.871	0.004011307
1.872	0.004010941
1.873	0.004011359
1.874	0.004011516
1.875	0.004011150
1.876	0.004011359
1.877	0.004011516
1.878	0.004011411
1.879	0.004011307
1.880	0.004011829
1.881	0.004011150
1.882	0.004011254
1.883	0.004011777
1.884	0.004011359
1.885	0.004011568
1.886	0.004011673
1.887	0.004010678
1.888	0.004011359
1.889	0.004011673
1.890	0.004010626
1.891	0.004010574
1.892	0.004010678
1.893	0.004011359
1.894	0.004010103
1.895	0.004010208
1.896	0.004010731
1.897	0.004009685
1.898	0.004010208
1.899	0.004010155
1.900	0.004009214
1.901	0.004009894
1.902	0.004009685
1.903	0.004009737
1.904	0.004009999
1.905	0.004009633
1.906	0.004009633
1.907	0.004009319
1.908	0.004009842
1.909	0.004010103
1.910	0.004009999
1.911	0.004010208
1.912	0.004009528
1.913	0.004009842
1.914	0.004009946
1.915	0.004009528
1.916	0.004009685
1.917	0.004009842
1.918	0.004009319
1.919	0.004010051
1.920	0.004011150
1.921	0.004009371
1.922	0.004009214
1.923	0.004009371
1.924	0.004009109
1.925	0.004009580
1.926	0.004008900
1.927	0.004008847
1.928	0.004009214
1.929	0.004009161
1.930	0.004009004
1.931	0.004009423
1.932	0.004008638
1.933	0.004009267
1.934	0.004008638
1.935	0.004009476
1.936	0.004009267
1.937	0.004009528
1.938	0.004009161
1.939	0.004009737
1.940	0.004009057
1.941	0.004009528
1.942	0.004008900
1.943	0.004009004
1.944	0.004009476
1.945	0.004008952
1.946	0.004008586
1.947	0.004008168
1.948	0.004008272
1.949	0.004008377
1.950	0.004008011
1.951	0.004008952
1.952	0.004009214
1.953	0.004009267
1.954	0.004008115
1.955	0.004009161
1.956	0.004008272
1.957	0.004008481
1.958	0.004008795
1.959	0.004008168
1.960	0.004008691
1.961	0.004007696
1.962	0.004008586
1.963	0.004008168
1.964	0.004008481
1.965	0.004008795
1.966	0.004008115
1.967	0.004007959
1.968	0.004007959
1.969	0.004007906
1.970	0.004007906
1.971	0.004007854
1.972	0.004008168
1.973	0.004008220
1.974	0.004009476
1.975	0.004008325
1.976	0.004008220
1.977	0.004008220
1.978	0.004008168
1.979	0.004008011
1.980	0.004008272
1.981	0.004007854
1.982	0.004007696
1.983	0.004007749
1.984	0.004007959
1.985	0.004007592
1.986	0.004007330
1.987	0.004007802
1.988	0.004008011
1.989	0.004008272
1.990	0.004008011
1.991	0.004007226
1.992	0.004007696
1.993	0.004007435
1.994	0.004007802
1.995	0.004007802
1.996	0.004006912
1.997	0.004007069
1.998	0.004007383
1.999	0.004007017
2.000	0.004007330
2.001	0.004007226
2.002	0.004007278
2.003	0.004007330
2.004	0.004007121
2.005	0.004007854
2.006	0.004007069
2.007	0.004006860
2.008	0.004006860
2.009	0.004007539
2.010	0.004007802
2.011	0.004006651
2.012	0.004006651
2.013	0.004007121
2.014	0.004006441
2.015	0.004006651
2.016	0.004006755
2.017	0.004005499
2.018	0.004005709
2.019	0.004005761
2.020	0.004006127
2.021	0.004006755
2.022	0.004005813
2.023	0.004005865
2.024	0.004005865
2.025	0.004005813
2.026	0.004006179
2.027	0.004006022
2.028	0.004006964
2.029	0.004006703
2.030	0.004005552
2.031	0.004006232
2.032	0.004005970
2.033	0.004005865
2.034	0.004005395
2.035	0.004005552
2.036	0.004005813
2.037	0.004005186
2.038	0.004006179
2.039	0.004005499
2.040	0.004005709
2.041	0.004005029
2.042	0.004005499
2.043	0.004005133
2.044	0.004004924
2.045	0.004005133
2.046	0.004006651
2.047	0.004006337
2.048	0.004005761
2.049	0.004005604
2.050	0.004005865
2.051	0.004005865
2.052	0.004005499
2.053	0.004005238
2.054	0.004004924
2.055	0.004005499
2.056	0.004005343
2.057	0.004004191
2.058	0.004005499
2.059	0.004004296
2.060	0.004004453
2.061	0.004005761
2.062	0.004004820
2.063	0.004005604
2.064	0.004005186
2.065	0.004005761
2.066	0.004004924
2.067	0.004005813
2.068	0.004005709
2.069	0.004005552
2.070	0.004006022
2.071	0.004004767
2.072	0.004004767
2.073	0.004004610
2.074	0.004005029
2.075	0.004005133
2.076	0.004005081
2.077	0.004004505
2.078	0.004004035
2.079	0.004004820
2.080	0.004005395
2.081	0.004004453
2.082	0.004005499
2.083	0.004004505
2.084	0.004004557
2.085	0.004004767
2.086	0.004004820
2.087	0.004004924
2.088	0.004004977
2.089	0.004005186
2.090	0.004004505
2.091	0.004004714
2.092	0.004004401
2.093	0.004004453
2.094	0.004004453
2.095	0.004003982
2.096	0.004003773
2.097	0.004004401
2.098	0.004004191
2.099	0.004003982
2.100	0.004003982
2.101	0.004004977
2.102	0.004004662
2.103	0.004004139
2.104	0.004004087
2.105	0.004004662
2.106	0.004004714
2.107	0.004003878
2.108	0.004004401
2.109	0.004004139
2.110	0.004003459
2.111	0.004003878
2.112	0.004003773
2.113	0.004003773
2.114	0.004003459
2.115	0.004003930
2.116	0.004004296
2.117	0.004004505
2.118	0.004004401
2.119	0.004004244
2.120	0.004004557
2.121	0.004003616
2.122	0.004004296
2.123	0.004003407
2.124	0.004003721
2.125	0.004003669
2.126	0.004003250
2.127	0.004003250
2.128	0.004003721
2.129	0.004003669
2.130	0.004003250
2.131	0.004002674
2.132	0.004002936
2.133	0.004002779
2.134	0.004003197
2.135	0.004003355
2.136	0.004002727
2.137	0.004002517
2.138	0.004002308
2.139	0.004002727
2.140	0.004002988
2.141	0.004002936
2.142	0.004003145
2.143	0.004002936
2.144	0.004002622
2.145	0.004002256
2.146	0.004002256
2.147	0.004002570
2.148	0.004002622
2.149	0.004002256
2.150	0.004001838
2.151	0.004002099
2.152	0.004001995
2.153	0.004002047
2.154	0.004002361
2.155	0.004002047
2.156	0.004001785
2.157	0.004001523
2.158	0.004001890
2.159	0.004001890
2.160	0.004002151
2.161	0.004001262
2.162	0.004002308
2.163	0.004001366
2.164	0.004001628
2.165	0.004001000
2.166	0.004001419
2.167	0.004001314
2.168	0.004002308
2.169	0.004000896
2.170	0.004001785
2.171	0.004001419
2.172	0.004001209
2.173	0.004000530
2.174	0.004001366
2.175	0.004001471
2.176	0.004001419
2.177	0.004001680
2.178	0.004001523
2.179	0.004001366
2.180	0.004001157
2.181	0.004001157
2.182	0.004001000
2.183	0.004000791
2.184	0.004000425
2.185	0.004000896
2.186	0.004000321
2.187	0.003999901
2.188	0.004000163
2.189	0.003999849
2.190	0.004000163
2.191	0.004001000
2.192	0.004001575
2.193	0.004001157
2.194	0.004000896
2.195	0.004001314
2.196	0.004001732
2.197	0.004002099
2.198	0.004001838
2.199	0.004001732
2.200	0.004002831
2.201	0.004002413
2.202	0.004002413
2.203	0.004002674
2.204	0.004002151
2.205	0.004002099
2.206	0.004002413
2.207	0.004003773
2.208	0.004003721
2.209	0.004004610
2.210	0.004003459
2.211	0.004005029
2.212	0.004005813
2.213	0.004005970
2.214	0.004006075
2.215	0.004005761
2.216	0.004006755
2.217	0.004008325
2.218	0.004008063
2.219	0.004008534
2.220	0.004008795
2.221	0.004010208
2.222	0.004011411
2.223	0.004011150
2.224	0.004011097
2.225	0.004011045
2.226	0.004013137
2.227	0.004014811
2.228	0.004015544
2.229	0.004015335
2.230	0.004015387
2.231	0.004017793
2.232	0.004021456
2.233	0.004020357
2.234	0.004020985
2.235	0.004020462
2.236	0.004022816
2.237	0.004025118
2.238	0.004025327
2.239	0.004024595
2.240	0.004025484
2.241	0.004027737
2.242	0.004029194
2.243	0.004029726
2.244	0.004029460
2.245	0.004029563
2.246	0.004032546
2.247	0.004034954
2.248	0.004034586
2.249	0.004034534
2.250	0.004034277
2.251	0.004037046
2.252	0.004039823
2.253	0.004040551
2.254	0.004039660
2.255	0.004039977
2.256	0.004042386
2.257	0.004045420
2.258	0.004044426
2.259	0.004045103
2.260	0.004044477
2.261	0.004046303
2.262	0.004048557
2.263	0.004048034
2.264	0.004048557
2.265	0.004048660
2.266	0.004050803
2.267	0.004052371
2.268	0.004051960
2.269	0.004052371
2.270	0.004051643
2.271	0.004053057
2.272	0.004055046
2.273	0.004054780
2.274	0.004054677
2.275	0.004054463
2.276	0.004055303
2.277	0.004055620
2.278	0.004056451
2.279	0.004055406
2.280	0.004055200
2.281	0.004056143
2.282	0.004055569
2.283	0.004056040
2.284	0.004056769
2.285	0.004055569
2.286	0.004056820
2.287	0.004057497
2.288	0.004056246
2.289	0.004057034
2.290	0.004057291
2.291	0.004056974
2.292	0.004055980
2.293	0.004055877
2.294	0.004056040
2.295	0.004055671
2.296	0.004054206
2.297	0.004053211
2.298	0.004054154
2.299	0.004053631
2.300	0.004053366
2.301	0.004052166
2.302	0.004051429
2.303	0.004051746
2.304	0.004051377
2.305	0.004051223
2.306	0.004050280
2.307	0.004049654
2.308	0.004048866
2.309	0.004048711
2.310	0.004049500
2.311	0.004047666
2.312	0.004047091
2.313	0.004047040
2.314	0.004047666
2.315	0.004047143
2.316	0.004046251
2.317	0.004044786
2.318	0.004043954
2.319	0.004044374
2.320	0.004045257
2.321	0.004043217
2.322	0.004042857
2.323	0.004042171
2.324	0.004042694
2.325	0.004042326
2.326	0.004041443
2.327	0.004040971
2.328	0.004040971
2.329	0.004040397
2.330	0.004040869
2.331	0.004040183
2.332	0.004039189
2.333	0.004038666
2.334	0.004038666
2.335	0.004039086
2.336	0.004038091
2.337	0.004037097
2.338	0.004037671
2.339	0.004036891
2.340	0.004037046
2.341	0.004036574
2.342	0.004036626
2.343	0.004036000
2.344	0.004036471
2.345	0.004036943
2.346	0.004036154
2.347	0.004034534
2.348	0.004034954
2.349	0.004035006
2.350	0.004034740
2.351	0.004034063
2.352	0.004033591
2.353	0.004033806
2.354	0.004033806
2.355	0.004034011
2.356	0.004033017
2.357	0.004032289
2.358	0.004032863
2.359	0.004033334
2.360	0.004033754
2.361	0.004032289
2.362	0.004032966
2.363	0.004032597
2.364	0.004032126
2.365	0.004032126
2.366	0.004032914
2.367	0.004032914
2.368	0.004032914
2.369	0.004033120
2.370	0.004032966
2.371	0.004033120
2.372	0.004032229
2.373	0.004032391
2.374	0.004032177
2.375	0.004031920
2.376	0.004032391
2.377	0.004032391
2.378	0.004032340
2.379	0.004032546
2.380	0.004031869
2.381	0.004032443
2.382	0.004031920
2.383	0.004031706
2.384	0.004031346
2.385	0.004031869
2.386	0.004032023
2.387	0.004031654
2.388	0.004031766
2.389	0.004032023
2.390	0.004031869
2.391	0.004032700
2.392	0.004032126
2.393	0.004032966
2.394	0.004032494
2.395	0.004032863
2.396	0.004032811
2.397	0.004033437
2.398	0.004033540
2.399	0.004033754
2.400	0.004033386
2.401	0.004033069
2.402	0.004033386
2.403	0.004033069
2.404	0.004033489
2.405	0.004033017
2.406	0.004032760
2.407	0.004033334
2.408	0.004032494
2.409	0.004033283
2.410	0.004032760
2.411	0.004033591
2.412	0.004033334
2.413	0.004033540
2.414	0.004033806
2.415	0.004033754
2.416	0.004033591
2.417	0.004034011
2.418	0.004034277
2.419	0.004034114
2.420	0.004033754
2.421	0.004033857
2.422	0.004034217
2.423	0.004034903
2.424	0.004034740
2.425	0.004033909
2.426	0.004033960
2.427	0.004033643
2.428	0.004034011
2.429	0.004033909
2.430	0.004034431
2.431	0.004034114
2.432	0.004033960
2.433	0.004034166
2.434	0.004034217
2.435	0.004034011
2.436	0.004034217
2.437	0.004033857
2.438	0.004034217
2.439	0.004034063
2.440	0.004034011
2.441	0.004033643
2.442	0.004032966
2.443	0.004033171
2.444	0.004033283
2.445	0.004032811
2.446	0.004033120
2.447	0.004033437
2.448	0.004032289
2.449	0.004032700
2.450	0.004033171
2.451	0.004032700
2.452	0.004032494
2.453	0.004031817
2.454	0.004032023
2.455	0.004032597
2.456	0.004031706
2.457	0.004030874
2.458	0.004031183
2.459	0.004031131
2.460	0.004030711
2.461	0.004030771
2.462	0.004030403
2.463	0.004030557
2.464	0.004028989
2.465	0.004030137
2.466	0.004029829
2.467	0.004028569
2.468	0.004028783
2.469	0.004029143
2.470	0.004029091
2.471	0.004028517
2.472	0.004028260
2.473	0.004028620
2.474	0.004028097
2.475	0.004028149
2.476	0.004026477
2.477	0.004025641
2.478	0.004026057
2.479	0.004026057
2.480	0.004025954
2.481	0.004025484
2.482	0.004024856
2.483	0.004024438
2.484	0.004024019
2.485	0.004024386
2.486	0.004023548
2.487	0.004023182
2.488	0.004023705
2.489	0.004022973
2.490	0.004023705
2.491	0.004022083
2.492	0.004021456
2.493	0.004021874
2.494	0.004022397
2.495	0.004021508
2.496	0.004021561
2.497	0.004022083
2.498	0.004020828
2.499	0.004021351
2.500	0.004021613
2.501	0.004020828
2.502	0.004020462
2.503	0.004019677
2.504	0.004020148
2.505	0.004020775
2.506	0.004020462
2.507	0.004020096
2.508	0.004018892
2.509	0.004018945
2.510	0.004019363
2.511	0.004018735
2.512	0.004018422
2.513	0.004018160
2.514	0.004018997
2.515	0.004018213
2.516	0.004018735
2.517	0.004018840
2.518	0.004018579
2.519	0.004018735
2.520	0.004018945
2.521	0.004019939
2.522	0.004018840
2.523	0.004019049
2.524	0.004018735
2.525	0.004019154
2.526	0.004018422
2.527	0.004017846
2.528	0.004018160
2.529	0.004018317
2.530	0.004017950
2.531	0.004017375
2.532	0.004017898
2.533	0.004017689
2.534	0.004018213
2.535	0.004017584
2.536	0.004018265
2.537	0.004018422
2.538	0.004019206
2.539	0.004018160
2.540	0.004018369
2.541	0.004018579
2.542	0.004018213
2.543	0.004018160
2.544	0.004018997
2.545	0.004019101
2.546	0.004018683
2.547	0.004018107
2.548	0.004018474
2.549	0.004018369
2.550	0.004018840
2.551	0.004018631
2.552	0.004018735
2.553	0.004018422
2.554	0.004018369
2.555	0.004018265
2.556	0.004018579
2.557	0.004018997
2.558	0.004019677
2.559	0.004019834
2.560	0.004018631
2.561	0.004019991
2.562	0.004018840
2.563	0.004018840
2.564	0.004019939
2.565	0.004019625
2.566	0.004019677
2.567	0.004020096
2.568	0.004020619
2.569	0.004019415
2.570	0.004020305
2.571	0.004020723
2.572	0.004020723
2.573	0.004020096
2.574	0.004020775
2.575	0.004019834
2.576	0.004020409
2.577	0.004020775
2.578	0.004020409
2.579	0.004020932
2.580	0.004021142
2.581	0.004021351
2.582	0.004020932
2.583	0.004020932
2.584	0.004020514
2.585	0.004021037
2.586	0.004020619
2.587	0.004020775
2.588	0.004021717
2.589	0.004021089
2.590	0.004021195
2.591	0.004020775
2.592	0.004021613
2.593	0.004021037
2.594	0.004021142
2.595	0.004021089
2.596	0.004020880
2.597	0.004019887
2.598	0.004020985
2.599	0.004020409
2.600	0.004020619
2.601	0.004020514
2.602	0.004020462
2.603	0.004021089
2.604	0.004020305
2.605	0.004020514
2.606	0.004020409
2.607	0.004020723
2.608	0.004021142
2.609	0.004021404
2.610	0.004020880
2.611	0.004020932
2.612	0.004020723
2.613	0.004020148
2.614	0.004020566
2.615	0.004020775
2.616	0.004020514
2.617	0.004021089
2.618	0.004020723
2.619	0.004019991
2.620	0.004019991
2.621	0.004021404
2.622	0.004021561
2.623	0.004020985
2.624	0.004021142
2.625	0.004020828
2.626	0.004020514
2.627	0.004019834
2.628	0.004020305
2.629	0.004020305
2.630	0.004019887
2.631	0.004019049
2.632	0.004018945
2.633	0.004018788
2.634	0.004019467
2.635	0.004019101
2.636	0.004018840
2.637	0.004018683
2.638	0.004018579
2.639	0.004018997
2.640	0.004019206
2.641	0.004018945
2.642	0.004019154
2.643	0.004018997
2.644	0.004018892
2.645	0.004019363
2.646	0.004018579
2.647	0.004018213
2.648	0.004019258
2.649	0.004018631
2.650	0.004019154
2.651	0.004018683
2.652	0.004017584
2.653	0.004017898
2.654	0.004018579
2.655	0.004018213
2.656	0.004017846
2.657	0.004017532
2.658	0.004017532
2.659	0.004017741
2.660	0.004018213
2.661	0.004017323
2.662	0.004017375
2.663	0.004016800
2.664	0.004017218
2.665	0.004017271
2.666	0.004016590
2.667	0.004016800
2.668	0.004016800
2.669	0.004016800
2.670	0.004016485
2.671	0.004016224
2.672	0.004015858
2.673	0.004016433
2.674	0.004015440
2.675	0.004015178
2.676	0.004015701
2.677	0.004015597
2.678	0.004015701
2.679	0.004015544
2.680	0.004015073
2.681	0.004015335
2.682	0.004014445
2.683	0.004014289
2.684	0.004014498
2.685	0.004015178
2.686	0.004014759
2.687	0.004014027
2.688	0.004014393
2.689	0.004014236
2.690	0.004014341
2.691	0.004014184
2.692	0.004013608
2.693	0.004014236
2.694	0.004013294
2.695	0.004013923
2.696	0.004013451
2.697	0.004013399
2.698	0.004012510
2.699	0.004013975
2.700	0.004013399
2.701	0.004012928
2.702	0.004012510
2.703	0.004012301
2.704	0.004012039
2.705	0.004012719
2.706	0.004012510
2.707	0.004012301
2.708	0.004013713
2.709	0.004013137
2.710	0.004013242
2.711	0.004012667
2.712	0.004013451
2.713	0.004012719
2.714	0.004012719
2.715	0.004013033
2.716	0.004013347
2.717	0.004011673
2.718	0.004012876
2.719	0.004012458
2.720	0.004012458
2.721	0.004011568
2.722	0.004011673
2.723	0.004011411
2.724	0.004011150
2.725	0.004011359
2.726	0.004011045
2.727	0.004011568
2.728	0.004011150
2.729	0.004011463
2.730	0.004011516
2.731	0.004011307
2.732	0.004011254
2.733	0.004010574
2.734	0.004010941
2.735	0.004011045
2.736	0.004011202
2.737	0.004011045
2.738	0.004010678
2.739	0.004010993
2.740	0.004010626
2.741	0.004010784
2.742	0.004010155
2.743	0.004010312
2.744	0.004010312
2.745	0.004011307
2.746	0.004010417
2.747	0.004010365
2.748	0.004009946
2.749	0.004010155
2.750	0.004009946
2.751	0.004009528
2.752	0.004009737
2.753	0.004009999
2.754	0.004009685
2.755	0.004009371
2.756	0.004009894
2.757	0.004009319
2.758	0.004009737
2.759	0.004009528
2.760	0.004009580
2.761	0.004010260
2.762	0.004009894
2.763	0.004009946
2.764	0.004009319
2.765	0.004009946
2.766	0.004009842
2.767	0.004010260
2.768	0.004009528
2.769	0.004009999
2.770	0.004010103
2.771	0.004009161
2.772	0.004008847
2.773	0.004008795
2.774	0.004008691
2.775	0.004008952
2.776	0.004008691
2.777	0.004008481
2.778	0.004008586
2.779	0.004008481
2.780	0.004008534
2.781	0.004008481
2.782	0.004009423
2.783	0.004009214
2.784	0.004008429
2.785	0.004009004
2.786	0.004008586
2.787	0.004009267
2.788	0.004007959
2.789	0.004009267
2.790	0.004008481
2.791	0.004008272
2.792	0.004007592
2.793	0.004008325
2.794	0.004008325
2.795	0.004007696
2.796	0.004009057
2.797	0.004008377
2.798	0.004008481
2.799	0.004008534
2.800	0.004008325
2.801	0.004008534
2.802	0.004007487
2.803	0.004007696
2.804	0.004007906
2.805	0.004007539
2.806	0.004007854
2.807	0.004008429
2.808	0.004007487
2.809	0.004007802
2.810	0.004008063
2.811	0.004008115
2.812	0.004007592
2.813	0.004007539
2.814	0.004007539
2.815	0.004007592
2.816	0.004007173
2.817	0.004008795
2.818	0.004009214
2.819	0.004008952
2.820	0.004008429
2.821	0.004007592
2.822	0.004007539
2.823	0.004007854
2.824	0.004007173
2.825	0.004007435
2.826	0.004006807
2.827	0.004006285
2.828	0.004006912
2.829	0.004006441
2.830	0.004006232
2.831	0.004007487
2.832	0.004006860
2.833	0.004006912
2.834	0.004007487
2.835	0.004006703
2.836	0.004008638
2.837	0.004007696
2.838	0.004007435
2.839	0.004007278
2.840	0.004007696
2.841	0.004006651
2.842	0.004007539
2.843	0.004007226
2.844	0.004007121
2.845	0.004007121
2.846	0.004006807
2.847	0.004006285
2.848	0.004007173
2.849	0.004006807
2.850	0.004005865
2.851	0.004006651
2.852	0.004006337
2.853	0.004006022
2.854	0.004007539
2.855	0.004007278
2.856	0.004006494
2.857	0.004006179
2.858	0.004005709
2.859	0.004006389
2.860	0.004005813
2.861	0.004005604
2.862	0.004005186
2.863	0.004005552
2.864	0.004005343
2.865	0.004005604
2.866	0.004006022
2.867	0.004006232
2.868	0.004006441
2.869	0.004006285
2.870	0.004006232
2.871	0.004005865
2.872	0.004005604
2.873	0.004007330
2.874	0.004005499
2.875	0.004005865
2.876	0.004005761
2.877	0.004005813
2.878	0.004005709
2.879	0.004005604
2.880	0.004005761
2.881	0.004005238
2.882	0.004005656
2.883	0.004005133
2.884	0.004005238
2.885	0.004004401
2.886	0.004005552
2.887	0.004005029
2.888	0.004005552
2.889	0.004004872
2.890	0.004004924
2.891	0.004005552
2.892	0.004006127
2.893	0.004005343
2.894	0.004005133
2.895	0.004006232
2.896	0.004005709
2.897	0.004004924
2.898	0.004004505
2.899	0.004005238
2.900	0.004004296
2.901	0.004004244
2.902	0.004004977
2.903	0.004004296
2.904	0.004005290
2.905	0.004004977
2.906	0.004004087
2.907	0.004004296
2.908	0.004004505
2.909	0.004004924
2.910	0.004005238
2.911	0.004004191
2.912	0.004004714
2.913	0.004005029
2.914	0.004004139
2.915	0.004004557
2.916	0.004004557
2.917	0.004004087
2.918	0.004004296
2.919	0.004004453
2.920	0.004004296
2.921	0.004004035
2.922	0.004004505
2.923	0.004004191
2.924	0.004004139
2.925	0.004004505
2.926	0.004004453
2.927	0.004004401
2.928	0.004005029
2.929	0.004003930
2.930	0.004004505
2.931	0.004004610
2.932	0.004004191
2.933	0.004003825
2.934	0.004004714
2.935	0.004003773
2.936	0.004003982
2.937	0.004003564
2.938	0.004003773
2.939	0.004003250
2.940	0.004003512
2.941	0.004003407
2.942	0.004003145
2.943	0.004002256
2.944	0.004002988
2.945	0.004002727
2.946	0.004003197
2.947	0.004003145
2.948	0.004003093
2.949	0.004003616
2.950	0.004002936
2.951	0.004003093
2.952	0.004003197
2.953	0.004002779
2.954	0.004002988
2.955	0.004003040
2.956	0.004002779
2.957	0.004003250
2.958	0.004002883
2.959	0.004003197
2.960	0.004001838
2.961	0.004001890
2.962	0.004001785
2.963	0.004002988
2.964	0.004002517
2.965	0.004003093
2.966	0.004002413
2.967	0.004001942
2.968	0.004002674
2.969	0.004002988
2.970	0.004001995
2.971	0.004002413
2.972	0.004002727
2.973	0.004002674
2.974	0.004001942
2.975	0.004001838
2.976	0.004002779
2.977	0.004003093
2.978	0.004002465
2.979	0.004002308
2.980	0.004002151
2.981	0.004002727
2.982	0.004002308
2.983	0.004001995
2.984	0.004001995
2.985	0.004002570
2.986	0.004001942
2.987	0.004002517
2.988	0.004002361
2.989	0.004002465
2.990	0.004002413
2.991	0.004002047
2.992	0.004001680
2.993	0.004001942
2.994	0.004001995
2.995	0.004001628
2.996	0.004001419
2.997	0.004001628
2.998	0.004002256
2.999	0.004002622
3.000	0.004000739
3.001	0.004001314
3.002	0.004001366
3.003	0.004001471
3.004	0.004001157
3.005	0.004001053
3.006	0.004001628
3.007	0.004001157
3.008	0.004002047
3.009	0.004001575
3.010	0.004000843
3.011	0.004001732
3.012	0.004001890
3.013	0.004001262
3.014	0.004000843
3.015	0.004001314
3.016	0.004001471
3.017	0.004001680
3.018	0.004001628
3.019	0.004001523
3.020	0.004002099
3.021	0.004000739
3.022	0.004001209
3.023	0.004001209
3.024	0.004000739
3.025	0.004002047
3.026	0.004001314
3.027	0.004000058
3.028	0.004000477
3.029	0.004000634
3.030	0.004000215
3.031	0.004000582
3.032	0.004000373
3.033	0.004000373
3.034	0.004000948
3.035	0.004000373
3.036	0.004000111
3.037	0.004001575
3.038	0.004001471
3.039	0.004001262
3.040	0.004001732
3.041	0.004000896
3.042	0.004001890
3.043	0.004001419
3.044	0.004000791
3.045	0.004000843
3.046	0.004000948
3.047	0.004000948
3.048	0.004000948
3.049	0.004001314
3.050	0.004000530
3.051	0.004000111
3.052	0.004000582
3.053	0.003999849
3.054	0.004000163
3.055	0.004000111
3.056	0.004000373
3.057	0.004000582
3.058	0.004000373
3.059	0.004001157
3.060	0.004000058
3.061	0.004000373
3.062	0.004000843
3.063	0.004001471
3.064	0.004001314
3.065	0.004001262
3.066	0.003999901
3.067	0.003999169
3.068	0.003999431
3.069	0.003999849
3.070	0.003999640
3.071	0.003999535
3.072	0.004000058
3.073	0.003999901
3.074	0.003999013
3.075	0.003999692
3.076	0.003999901
3.077	0.004000739
3.078	0.004000111
3.079	0.003999954
3.080	0.003999849
3.081	0.004000582
3.082	0.003999483
3.083	0.004000739
3.084	0.004000634
3.085	0.004000373
3.086	0.003999745
3.087	0.004000163
3.088	0.003999901
3.089	0.004000111
3.090	0.003999849
3.091	0.003999849
3.092	0.003999169
3.093	0.003999169
3.094	0.003998908
3.095	0.003999274
3.096	0.003999379
3.097	0.004000582
3.098	0.003999379
3.099	0.003999692
3.100	0.003999169
3.101	0.003999954
3.102	0.004000582
3.103	0.004000791
3.104	0.003999954
3.105	0.004000163
3.106	0.004000058
3.107	0.003999431
3.108	0.003999169
3.109	0.003999013
3.110	0.003999326
3.111	0.003999588
3.112	0.003999274
3.113	0.004000373
3.114	0.004000058
3.115	0.003999588
3.116	0.003999065
3.117	0.003999117
3.118	0.003998698
3.119	0.003998908
3.120	0.003999169
3.121	0.003998646
3.122	0.003999117
3.123	0.003998489
3.124	0.003999013
3.125	0.003999222
3.126	0.003998332
3.127	0.003998437
3.128	0.003998175
3.129	0.003998071
3.130	0.003998384
3.131	0.003998332
3.132	0.003998071
3.133	0.003998489
3.134	0.003998071
3.135	0.003998593
3.136	0.003998437
3.137	0.003998908
3.138	0.003999379
3.139	0.003998018
3.140	0.003999274
3.141	0.003999379
3.142	0.003998332
3.143	0.003998071
3.144	0.003998384
3.145	0.003998541
3.146	0.003998175
3.147	0.003997705
3.148	0.003997548
3.149	0.003998018
3.150	0.003997181
3.151	0.003997495
3.152	0.003997443
3.153	0.003997495
3.154	0.003997391
3.155	0.003997391
3.156	0.003998332
3.157	0.003998437
3.158	0.003998071
3.159	0.003998280
3.160	0.003999117
3.161	0.003998071
3.162	0.003997757
3.163	0.003997600
3.164	0.003998018
3.165	0.003997495
3.166	0.003997966
3.167	0.003996658
3.168	0.003998227
3.169	0.003997076
3.170	0.003997339
3.171	0.003997024
3.172	0.003997391
3.173	0.003997129
3.174	0.003997181
3.175	0.003997129
3.176	0.003996553
3.177	0.003997705
3.178	0.003997181
3.179	0.003997233
3.180	0.003997652
3.181	0.003997129
3.182	0.003997076
3.183	0.003996972
3.184	0.003996606
3.185	0.003997600
3.186	0.003996919
3.187	0.003997339
3.188	0.003997495
3.189	0.003997705
3.190	0.003997391
3.191	0.003997181
3.192	0.003997024
3.193	0.003997233
3.194	0.003996501
3.195	0.003996919
3.196	0.003996397
3.197	0.003997076
3.198	0.003996553
3.199	0.003996606
3.200	0.003998123
3.201	0.003997757
3.202	0.003996397
3.203	0.003997129
3.204	0.003996135
3.205	0.003997076
3.206	0.003996710
3.207	0.003996919
3.208	0.003996240
3.209	0.003995768
3.210	0.003996501
3.211	0.003996553
3.212	0.003996606
3.213	0.003996919
3.214	0.003996606
3.215	0.003996240
3.216	0.003996344
3.217	0.003997024
3.218	0.003996919
3.219	0.003996606
3.220	0.003997076
3.221	0.003996658
3.222	0.003996292
3.223	0.003996449
3.224	0.003996135
3.225	0.003996135
3.226	0.003996397
3.227	0.003996031
3.228	0.003996397
3.229	0.003995455
3.230	0.003996449
3.231	0.003996083
3.232	0.003995455
3.233	0.003995507
3.234	0.003995768
3.235	0.003995874
3.236	0.003995821
3.237	0.003996292
3.238	0.003996344
3.239	0.003995821
3.240	0.003995874
3.241	0.003995926
3.242	0.003995298
3.243	0.003995245
3.244	0.003995193
3.245	0.003995611
3.246	0.003995874
3.247	0.003996449
3.248	0.003995350
3.249	0.003995455
3.250	0.003995768
3.251	0.003996083
3.252	0.003995402
3.253	0.003996292
3.254	0.003995716
3.255	0.003996135
3.256	0.003995926
3.257	0.003995507
3.258	0.003995926
3.259	0.003995821
3.260	0.003995978
3.261	0.003995611
3.262	0.003995768
3.263	0.003996083
3.264	0.003996083
3.265	0.003995768
3.266	0.003995455
3.267	0.003995402
3.268	0.003995298
3.269	0.003994775
3.270	0.003995768
3.271	0.003995716
3.272	0.003995193
3.273	0.003995455
3.274	0.003995245
3.275	0.003995821
3.276	0.003994984
3.277	0.003995089
3.278	0.003995089
3.279	0.003994932
3.280	0.003995141
3.281	0.003995089
3.282	0.003995455
3.283	0.003994984
3.284	0.003994879
3.285	0.003995193
3.286	0.003995193
3.287	0.003995036
3.288	0.003994303
3.289	0.003994147
3.290	0.003994357
3.291	0.003994357
3.292	0.003995141
3.293	0.003995193
3.294	0.003994932
3.295	0.003995559
3.296	0.003995559
3.297	0.003995141
3.298	0.003995716
3.299	0.003995716
3.300	0.003995193
3.301	0.003995245
3.302	0.003994251
3.303	0.003994409
3.304	0.003995611
3.305	0.003994932
3.306	0.003994147
3.307	0.003994618
3.308	0.003994409
3.309	0.003994147
3.310	0.003994251
3.311	0.003994827
3.312	0.003995768
3.313	0.003994357
3.314	0.003994042
3.315	0.003994094
3.316	0.003994775
3.317	0.003995402
3.318	0.003996135
3.319	0.003995611
3.320	0.003996031
3.321	0.003995455
3.322	0.003994513
3.323	0.003994932
3.324	0.003995193
3.325	0.003995141
3.326	0.003995036
3.327	0.003994775
3.328	0.003994461
3.329	0.003994827
3.330	0.003994984
3.331	0.003994357
3.332	0.003993467
3.333	0.003993310
3.334	0.003994042
3.335	0.003994618
3.336	0.003994723
3.337	0.003994513
3.338	0.003994932
3.339	0.003994879
3.340	0.003994879
3.341	0.003995036
3.342	0.003994984
3.343	0.003993990
3.344	0.003994932
3.345	0.003994409
3.346	0.003994984
3.347	0.003995245
3.348	0.003994618
3.349	0.003994251
3.350	0.003994670
3.351	0.003994513
3.352	0.003994984
3.353	0.003994199
3.354	0.003994461
3.355	0.003994513
3.356	0.003994723
3.357	0.003994932
3.358	0.003994827
3.359	0.003995036
3.360	0.003995298
3.361	0.003994775
3.362	0.003994461
3.363	0.003993937
3.364	0.003994303
3.365	0.003994147
3.366	0.003994461
3.367	0.003993833
3.368	0.003994670
3.369	0.003993990
3.370	0.003994094
3.371	0.003993885
3.372	0.003994932
3.373	0.003993833
3.374	0.003993885
3.375	0.003994303
3.376	0.003994723
3.377	0.003993624
3.378	0.003994199
3.379	0.003993624
3.380	0.003993885
3.381	0.003993885
3.382	0.003993258
3.383	0.003993781
3.384	0.003994251
3.385	0.003993467
3.386	0.003993885
3.387	0.003993728
3.388	0.003993258
3.389	0.003993728
3.390	0.003993571
3.391	0.003993676
3.392	0.003993676
3.393	0.003993415
3.394	0.003993728
3.395	0.003993833
3.396	0.003993833
3.397	0.003994251
3.398	0.003993310
3.399	0.003993937
3.400	0.003993205
3.401	0.003993937
3.402	0.003993781
3.403	0.003992368
3.404	0.003993676
3.405	0.003992839
3.406	0.003992839
3.407	0.003993101
3.408	0.003993467
3.409	0.003992629
3.410	0.003993101
3.411	0.003992368
3.412	0.003992944
3.413	0.003993101
3.414	0.003992786
3.415	0.003992839
3.416	0.003992525
3.417	0.003992734
3.418	0.003993101
3.419	0.003992892
3.420	0.003992839
3.421	0.003993467
3.422	0.003993624
3.423	0.003993467
3.424	0.003993049
3.425	0.003993049
3.426	0.003994723
3.427	0.003994513
3.428	0.003994513
3.429	0.003995245
3.430	0.003993885
3.431	0.003995245
3.432	0.003995926
3.433	0.003996083
3.434	0.003996187
3.435	0.003995978
3.436	0.003997600
3.437	0.003998437
3.438	0.003998175
3.439	0.003998803
3.440	0.003998803
3.441	0.004000425
3.442	0.004002151
3.443	0.004001523
3.444	0.004001942
3.445	0.004001680
3.446	0.004003878
3.447	0.004004820
3.448	0.004004296
3.449	0.004005343
3.450	0.004005029
3.451	0.004006285
3.452	0.004008481
3.453	0.004007539
3.454	0.004008900
3.455	0.004008168
3.456	0.004011150
3.457	0.004013137
3.458	0.004013713
3.459	0.004013818
3.460	0.004013608
3.461	0.004016276
3.462	0.004018631
3.463	0.004018474
3.464	0.004018474
3.465	0.004018892
3.466	0.004020357
3.467	0.004023287
3.468	0.004023810
3.469	0.004023705
3.470	0.004023391
3.471	0.004025954
3.472	0.004028620
3.473	0.004029460
3.474	0.004029040
3.475	0.004028517
3.476	0.004031500
3.477	0.004034277
3.478	0.004035477
3.479	0.004034114
3.480	0.004034166
3.481	0.004037363
3.482	0.004039291
3.483	0.004038460
3.484	0.004039034
3.485	0.004038880
3.486	0.004041074
3.487	0.004042591
3.488	0.004042960
3.489	0.004042386
3.490	0.004043431
3.491	0.004044109
3.492	0.004045943
3.493	0.004045831
3.494	0.004045729
3.495	0.004045831
3.496	0.004047511
3.497	0.004048506
3.498	0.004048660
3.499	0.004048454
3.500	0.004048506
3.501	0.004048814
3.502	0.004050443
3.503	0.004050229
3.504	0.004049500
3.505	0.004050383
3.506	0.004050751
3.507	0.004050126
3.508	0.004050751
3.509	0.004050126
3.510	0.004050597
3.511	0.004050700
3.512	0.004050494
3.513	0.004050177
3.514	0.004050700
3.515	0.004050906
3.516	0.004050229
3.517	0.004051017
3.518	0.004051326
3.519	0.004050906
3.520	0.004050177
3.521	0.004050126
3.522	0.004049131
3.523	0.004048609
3.524	0.004048866
3.525	0.004049449
3.526	0.004048240
3.527	0.004046303
3.528	0.004046466
3.529	0.004046989
3.530	0.004046414
3.531	0.004045994
3.532	0.004045103
3.533	0.004043740
3.534	0.004044683
3.535	0.004044374
3.536	0.004043166
3.537	0.004042797
3.538	0.004042326
3.539	0.004042223
3.540	0.004041803
3.541	0.004042223
3.542	0.004040080
3.543	0.004041074
3.544	0.004039660
3.545	0.004040551
3.546	0.004039763
3.547	0.004038143
3.548	0.004038246
3.549	0.004037774
3.550	0.004038306
3.551	0.004037363
3.552	0.004036789
3.553	0.004036626
3.554	0.004036626
3.555	0.004037046
3.556	0.004035683
3.557	0.004034380
3.558	0.004034534
3.559	0.004035057
3.560	0.004034277
3.561	0.004034277
3.562	0.004032914
3.563	0.004033069
3.564	0.004033334
3.565	0.004032863
3.566	0.004031766
3.567	0.004031080
3.568	0.004030189
3.569	0.004031500
3.570	0.004030771
3.571	0.004030557
3.572	0.004030351
3.573	0.004029983
3.574	0.004030557
3.575	0.004030137
3.576	0.004029254
3.577	0.004029460
3.578	0.004029666
3.579	0.004029726
3.580	0.004028937
3.581	0.004028517
3.582	0.004027789
3.583	0.004028260
3.584	0.004028209
3.585	0.004028149
3.586	0.004026949
3.587	0.004026426
3.588	0.004026323
3.589	0.004026477
3.590	0.004026794
3.591	0.004026743
3.592	0.004026631
3.593	0.004025749
3.594	0.004026220
3.595	0.004026160
3.596	0.004025851
3.597	0.004025954
3.598	0.004026006
3.599	0.004026057
3.600	0.004025800
3.601	0.004025694
3.602	0.004025379
3.603	0.004024909
3.604	0.004025379
3.605	0.004025118
3.606	0.004024961
3.607	0.004024961
3.608	0.004024961
3.609	0.004025327
3.610	0.004025379
3.611	0.004025641
3.612	0.004025118
3.613	0.004025641
3.614	0.004025431
3.615	0.004025379
3.616	0.004025065
3.617	0.004025536
3.618	0.004026057
3.619	0.004024961
3.620	0.004024856
3.621	0.004025327
3.622	0.004024856
3.623	0.004025954
3.624	0.004025327
3.625	0.004025275
3.626	0.004025749
3.627	0.004026897
3.628	0.004026631
3.629	0.004026160
3.630	0.004026006
3.631	0.004026160
3.632	0.004026580
3.633	0.004025954
3.634	0.004026374
3.635	0.004026426
3.636	0.004026580
3.637	0.004025800
3.638	0.004026794
3.639	0.004026631
3.640	0.004026160
3.641	0.004027103
3.642	0.004026477
3.643	0.004026743
3.644	0.004026271
3.645	0.004026271
3.646	0.004026580
3.647	0.004026426
3.648	0.004026374
3.649	0.004026794
3.650	0.004026631
3.651	0.004027626
3.652	0.004027523
3.653	0.004027574
3.654	0.004028260
3.655	0.004027000
3.656	0.004027471
3.657	0.004027994
3.658	0.004027574
3.659	0.004027471
3.660	0.004027840
3.661	0.004028149
3.662	0.004027737
3.663	0.004028671
3.664	0.004027420
3.665	0.004028097
3.666	0.004028517
3.667	0.004027471
3.668	0.004027471
3.669	0.004028046
3.670	0.004028209
3.671	0.004028886
3.672	0.004028260
3.673	0.004028149
3.674	0.004027789
3.675	0.004027891
3.676	0.004028046
3.677	0.004027103
3.678	0.004027523
3.679	0.004027737
3.680	0.004026897
3.681	0.004027420
3.682	0.004026949
3.683	0.004027471
3.684	0.004027154
3.685	0.004027103
3.686	0.004027266
3.687	0.004027103
3.688	0.004026323
3.689	0.004026949
3.690	0.004027574
3.691	0.004027000
3.692	0.004025694
3.693	0.004026477
3.694	0.004025954
3.695	0.004025800
3.696	0.004025222
3.697	0.004024490
3.698	0.004024595
3.699	0.004024333
3.700	0.004024124
3.701	0.004024438
3.702	0.004023810
3.703	0.004024019
3.704	0.004024229
3.705	0.004023653
3.706	0.004024124
3.707	0.004021822
3.708	0.004023078
3.709	0.004022083
3.710	0.004022345
3.711	0.004021247
3.712	0.004021508
3.713	0.004020932
3.714	0.004019991
3.715	0.004021142
3.716	0.004021142
3.717	0.004019782
3.718	0.004020305
3.719	0.004019887
3.720	0.004019991
3.721	0.004019834
3.722	0.004018997
3.723	0.004018892
3.724	0.004019154
3.725	0.004019311
3.726	0.004018474
3.727	0.004017532
3.728	0.004018997
3.729	0.004018107
3.730	0.004018107
3.731	0.004017637
3.732	0.004018160
3.733	0.004018107
3.734	0.004017061
3.735	0.004017950
3.736	0.004018213
3.737	0.004017061
3.738	0.004017480
3.739	0.004016852
3.740	0.004017637
3.741	0.004017166
3.742	0.004017375
3.743	0.004016957
3.744	0.004015963
3.745	0.004016538
3.746	0.004016643
3.747	0.004015910
3.748	0.004015283
3.749	0.004015858
3.750	0.004015806
3.751	0.004015073
3.752	0.004014968
3.753	0.004014602
3.754	0.004014916
3.755	0.004015753
3.756	0.004015178
3.757	0.004015806
3.758	0.004015492
3.759	0.004015544
3.760	0.004015544
3.761	0.004015440
3.762	0.004014811
3.763	0.004014707
3.764	0.004014916
3.765	0.004014655
3.766	0.004014393
3.767	0.004014707
3.768	0.004014968
3.769	0.004015073
3.770	0.004015335
3.771	0.004014655
3.772	0.004014759
3.773	0.004015649
3.774	0.004015335
3.775	0.004015021
3.776	0.004015335
3.777	0.004015073
3.778	0.004015178
3.779	0.004015335
3.780	0.004015021
3.781	0.004015021
3.782	0.004015387
3.783	0.004014916
3.784	0.004015125
3.785	0.004015073
3.786	0.004015858
3.787	0.004015858
3.788	0.004015283
3.789	0.004016119
3.790	0.004015544
3.791	0.004015858
3.792	0.004016276
3.793	0.004016957
3.794	0.004016015
3.795	0.004015597
3.796	0.004016172
3.797	0.004016538
3.798	0.004015649
3.799	0.004015178
3.800	0.004016224
3.801	0.004016224
3.802	0.004016538
3.803	0.004016224
3.804	0.004016119
3.805	0.004016643
3.806	0.004016643
3.807	0.004016224
3.808	0.004015806
3.809	0.004017218
3.810	0.004016800
3.811	0.004016485
3.812	0.004016852
3.813	0.004016643
3.814	0.004016119
3.815	0.004016905
3.816	0.004016015
3.817	0.004016433
3.818	0.004016852
3.819	0.004016119
3.820	0.004016590
3.821	0.004016015
3.822	0.004017009
3.823	0.004016538
3.824	0.004016381
3.825	0.004016800
3.826	0.004016590
3.827	0.004017532
3.828	0.004017689
3.829	0.004017218
3.830	0.004017584
3.831	0.004017271
3.832	0.004017061
3.833	0.004017323
3.834	0.004017532
3.835	0.004017323
3.836	0.004016748
3.837	0.004017218
3.838	0.004017480
3.839	0.004017166
3.840	0.004017061
3.841	0.004017061
3.842	0.004017898
3.843	0.004017166
3.844	0.004017741
3.845	0.004017375
3.846	0.004017271
3.847	0.004016015
3.848	0.004016538
3.849	0.004016748
3.850	0.004016748
3.851	0.004016172
3.852	0.004015440
3.853	0.004016643
3.854	0.004015597
3.855	0.004016119
3.856	0.004015858
3.857	0.004016590
3.858	0.004015492
3.859	0.004015544
3.860	0.004015701
3.861	0.004016172
3.862	0.004016015
3.863	0.004016748
3.864	0.004015963
3.865	0.004016433
3.866	0.004016119
3.867	0.004015335
3.868	0.004016538
3.869	0.004015858
3.870	0.004016381
3.871	0.004015649
3.872	0.004015021
3.873	0.004015544
3.874	0.004015073
3.875	0.004014968
3.876	0.004015701
3.877	0.004014759
3.878	0.004015073
3.879	0.004014602
3.880	0.004014759
3.881	0.004014864
3.882	0.004014602
3.883	0.004014079
3.884	0.004015492
3.885	0.004015021
3.886	0.004014498
3.887	0.004013451
3.888	0.004013870
3.889	0.004014027
3.890	0.004013556
3.891	0.004013975
3.892	0.004013347
3.893	0.004013661
3.894	0.004013399
3.895	0.004013399
3.896	0.004012667
3.897	0.004013975
3.898	0.004013137
3.899	0.004013347
3.900	0.004013503
3.901	0.004013713
3.902	0.004013399
3.903	0.004013399
3.904	0.004013347
3.905	0.004013818
3.906	0.004012353
3.907	0.004011829
3.908	0.004012353
3.909	0.004012353
3.910	0.004012510
3.911	0.004012249
3.912	0.004011516
3.913	0.004011620
3.914	0.004012196
3.915	0.004011307
3.916	0.004011568
3.917	0.004011673
3.918	0.004012353
3.919	0.004011725
3.920	0.004012143
3.921	0.004011463
3.922	0.004011150
3.923	0.004011620
3.924	0.004011307
3.925	0.004011202
3.926	0.004011516
3.927	0.004010784
3.928	0.004010417
3.929	0.004010731
3.930	0.004011097
3.931	0.004010993
3.932	0.004010521
3.933	0.004010678
3.934	0.004010941
3.935	0.004010731
3.936	0.004010784
3.937	0.004010208
3.938	0.004009842
3.939	0.004010260
3.940	0.004010155
3.941	0.004010103
3.942	0.004009580
3.943	0.004009894
3.944	0.004009737
3.945	0.004010051
3.946	0.004009109
3.947	0.004009109
3.948	0.004010051
3.949	0.004009894
3.950	0.004009161
3.951	0.004009371
3.952	0.004009423
3.953	0.004009737
3.954	0.004009737
3.955	0.004009476
3.956	0.004008586
3.957	0.004008900
3.958	0.004008220
3.959	0.004008795
3.960	0.004008534
3.961	0.004008272
3.962	0.004009214
3.963	0.004008325
3.964	0.004008534
3.965	0.004009161
3.966	0.004009109
3.967	0.004008429
3.968	0.004008586
3.969	0.004008272
3.970	0.004008586
3.971	0.004008325
3.972	0.004007959
3.973	0.004008325
3.974	0.004008481
3.975	0.004008691
3.976	0.004007487
3.977	0.004007539
3.978	0.004007226
3.979	0.004007487
3.980	0.004007696
3.981	0.004007121
3.982	0.004007487
3.983	0.004006755
3.984	0.004006860
3.985	0.004007121
3.986	0.004006964
3.987	0.004008063
3.988	0.004007121
3.989	0.004007173
3.990	0.004008063
3.991	0.004006964
3.992	0.004007539
3.993	0.004006860
3.994	0.004007435
3.995	0.004007959
3.996	0.004006807
3.997	0.004007226
3.998	0.004006807
3.999	0.004006964
4.000	0.004007017
4.001	0.004006807
4.002	0.004005813
4.003	0.004006022
4.004	0.004006179
4.005	0.004005970
4.006	0.004006755
4.007	0.004007330
4.008	0.004006179
4.009	0.004006703
4.010	0.004006337
4.011	0.004006337
4.012	0.004005918
4.013	0.004006651
4.014	0.004006337
4.015	0.004006494
4.016	0.004006755
4.017	0.004006127
4.018	0.004005604
4.019	0.004005865
4.020	0.004006337
4.021	0.004006127
4.022	0.004006703
4.023	0.004006127
4.024	0.004005970
4.025	0.004005656
4.026	0.004005813
4.027	0.004005970
4.028	0.004005709
4.029	0.004005709
4.030	0.004005970
4.031	0.004004924
4.032	0.004004401
4.033	0.004005133
4.034	0.004004820
4.035	0.004004924
4.036	0.004004453
4.037	0.004004296
4.038	0.004005133
4.039	0.004004401
4.040	0.004004244
4.041	0.004005186
4.042	0.004004872
4.043	0.004003930
4.044	0.004005081
4.045	0.004005552
4.046	0.004005343
4.047	0.004004401
4.048	0.004004820
4.049	0.004004924
4.050	0.004005499
4.051	0.004004557
4.052	0.004004191
4.053	0.004003669
4.054	0.004003982
4.055	0.004003878
4.056	0.004004244
4.057	0.004004505
4.058	0.004004924
4.059	0.004005133
4.060	0.004004505
4.061	0.004005133
4.062	0.004004557
4.063	0.004004557
4.064	0.004004401
4.065	0.004004244
4.066	0.004004191
4.067	0.004003616
4.068	0.004003930
4.069	0.004004139
4.070	0.004004505
4.071	0.004003669
4.072	0.004003512
4.073	0.004003459
4.074	0.004003407
4.075	0.004003459
4.076	0.004003773
4.077	0.004003773
4.078	0.004003825
4.079	0.004003669
4.080	0.004004557
4.081	0.004003669
4.082	0.004003878
4.083	0.004003459
4.084	0.004003669
4.085	0.004003512
4.086	0.004003669
4.087	0.004003355
4.088	0.004003250
4.089	0.004003773
4.090	0.004003773
4.091	0.004003145
4.092	0.004003197
4.093	0.004002883
4.094	0.004002674
4.095	0.004003825
4.096	0.004002570
4.097	0.004003407
4.098	0.004003459
4.099	0.004004505
4.100	0.004003512
4.101	0.004003250
4.102	0.004004035
4.103	0.004003930
4.104	0.004004035
4.105	0.004003355
4.106	0.004003459
4.107	0.004003459
4.108	0.004003093
4.109	0.004002674
4.110	0.004002936
4.111	0.004003250
4.112	0.004003825
4.113	0.004002570
4.114	0.004003250
4.115	0.004002674
4.116	0.004002570
4.117	0.004003355
4.118	0.004003564
4.119	0.004003512
4.120	0.004003407
4.121	0.004002779
4.122	0.004002256
4.123	0.004002779
4.124	0.004003197
4.125	0.004002727
4.126	0.004002256
4.127	0.004002988
4.128	0.004002779
4.129	0.004002151
4.130	0.004001942
4.131	0.004002517
4.132	0.004002047
4.133	0.004002779
4.134	0.004002517
4.135	0.004002308
4.136	0.004003093
4.137	0.004002883
4.138	0.004002727
4.139	0.004002936
4.140	0.004002413
4.141	0.004003197
4.142	0.004001785
4.143	0.004002361
4.144	0.004002727
4.145	0.004002308
4.146	0.004002361
4.147	0.004002465
4.148	0.004001732
4.149	0.004002308
4.150	0.004002099
4.151	0.004001890
4.152	0.004002465
4.153	0.004001995
4.154	0.004002308
4.155	0.004002674
4.156	0.004001366
4.157	0.004001995
4.158	0.004002674
4.159	0.004001262
4.160	0.004001575
4.161	0.004002622
4.162	0.004002413
4.163	0.004001628
4.164	0.004002308
4.165	0.004001419
4.166	0.004001157
4.167	0.004001680
4.168	0.004001209
4.169	0.004001471
4.170	0.004001838
4.171	0.004000791
4.172	0.004002361
4.173	0.004001157
4.174	0.004000948
4.175	0.004001942
4.176	0.004001471
4.177	0.004000948
4.178	0.004000739
4.179	0.004002256
4.180	0.004001366
4.181	0.004001575
4.182	0.004000215
4.183	0.004000268
4.184	0.004000687
4.185	0.004000268
4.186	0.004000058
4.187	0.004000582
4.188	0.004001262
4.189	0.004001000
4.190	0.004000791
4.191	0.004001419
4.192	0.003999954
4.193	0.004001209
4.194	0.004000896
4.195	0.004001000
4.196	0.004000530
4.197	0.004000058
4.198	0.004001157
4.199	0.004000477
4.200	0.004000163
4.201	0.004000477
4.202	0.004000163
4.203	0.004000163
4.204	0.003999692
4.205	0.003999692
4.206	0.003999274
4.207	0.004000425
4.208	0.003999588
4.209	0.003999849
4.210	0.004000425
4.211	0.004000373
4.212	0.004000111
4.213	0.004000215
4.214	0.004000843
4.215	0.004000530
4.216	0.003999326
4.217	0.003999431
4.218	0.003999326
4.219	0.003998646
4.220	0.003999692
4.221	0.003999745
4.222	0.003999117
4.223	0.003998803
4.224	0.003999379
4.225	0.003998856
4.226	0.003999117
4.227	0.003999745
4.228	0.003999379
4.229	0.003999692
4.230	0.003999692
4.231	0.004000530
4.232	0.003999797
4.233	0.003999222
4.234	0.003999745
4.235	0.003999535
4.236	0.003999379
4.237	0.003999588
4.238	0.003999222
4.239	0.003999588
4.240	0.003999326
4.241	0.003999274
4.242	0.003999326
4.243	0.003999169
4.244	0.003999169
4.245	0.003998541
4.246	0.003998698
4.247	0.003999274
4.248	0.003999065
4.249	0.003999117
4.250	0.003999535
4.251	0.003998856
4.252	0.003998541
4.253	0.003998646
4.254	0.003999013
4.255	0.003999274
4.256	0.003998856
4.257	0.003998750
4.258	0.003998646
4.259	0.003998384
4.260	0.003999274
4.261	0.003998437
4.262	0.003997914
4.263	0.003998541
4.264	0.003998489
4.265	0.003998646
4.266	0.003998437
4.267	0.003998593
4.268	0.003998123
4.269	0.003998698
4.270	0.003998489
4.271	0.003997705
4.272	0.003998593
4.273	0.003998908
4.274	0.003998541
4.275	0.003998384
4.276	0.003998593
4.277	0.003998123
4.278	0.003997914
4.279	0.003998593
4.280	0.003997652
4.281	0.003998018
4.282	0.003998123
4.283	0.003997285
4.284	0.003997757
4.285	0.003997600
4.286	0.003998541
4.287	0.003998280
4.288	0.003998856
4.289	0.003999065
4.290	0.003997914
4.291	0.003998698
4.292	0.003998856
4.293	0.003997914
4.294	0.003998332
4.295	0.003998437
4.296	0.003997548
4.297	0.003998437
4.298	0.003997705
4.299	0.003997129
4.300	0.003997705
4.301	0.003998280
4.302	0.003997600
4.303	0.003998280
4.304	0.003997600
4.305	0.003997809
4.306	0.003998489
4.307	0.003998280
4.308	0.003998332
4.309	0.003997914
4.310	0.003998384
4.311	0.003998175
4.312	0.003997914
4.313	0.003997757
4.314	0.003997652
4.315	0.003997443
4.316	0.003997809
4.317	0.003997495
4.318	0.003997024
4.319	0.003997285
4.320	0.003996919
4.321	0.003996867
4.322	0.003997757
4.323	0.003997129
4.324	0.003997181
4.325	0.003996710
4.326	0.003996867
4.327	0.003996606
4.328	0.003997076
4.329	0.003997914
4.330	0.003997443
4.331	0.003997285
4.332	0.003997076
4.333	0.003996867
4.334	0.003996972
4.335	0.003996658
4.336	0.003997339
4.337	0.003996397
4.338	0.003996972
4.339	0.003996292
4.340	0.003996710
4.341	0.003997233
4.342	0.003996397
4.343	0.003997129
4.344	0.003996815
4.345	0.003996972
4.346	0.003996658
4.347	0.003997024
4.348	0.003997705
4.349	0.003996240
4.350	0.003996658
4.351	0.003996606
4.352	0.003996919
4.353	0.003997076
4.354	0.003996867
4.355	0.003996972
4.356	0.003996501
4.357	0.003995978
4.358	0.003996972
4.359	0.003996031
4.360	0.003996606
4.361	0.003996449
4.362	0.003996397
4.363	0.003996397
4.364	0.003996187
4.365	0.003996606
4.366	0.003996919
4.367	0.003996187
4.368	0.003997181
4.369	0.003996292
4.370	0.003996397
4.371	0.003996867
4.372	0.003995926
4.373	0.003996397
4.374	0.003995874
4.375	0.003995874
4.376	0.003996187
4.377	0.003996344
4.378	0.003996553
4.379	0.003996240
4.380	0.003996187
4.381	0.003996397
4.382	0.003995716
4.383	0.003996187
4.384	0.003995611
4.385	0.003996135
4.386	0.003995821
4.387	0.003996501
4.388	0.003996867
4.389	0.003996867
4.390	0.003996658
4.391	0.003995507
4.392	0.003995768
4.393	0.003996031
4.394	0.003995716
4.395	0.003995559
4.396	0.003996240
4.397	0.003995193
4.398	0.003995350
4.399	0.003995821
4.400	0.003995611
4.401	0.003995455
4.402	0.003995507
4.403	0.003995978
4.404	0.003995978
4.405	0.003996449
4.406	0.003995193
4.407	0.003996083
4.408	0.003995978
4.409	0.003996031
4.410	0.003995350
4.411	0.003996083
4.412	0.003996292
4.413	0.003996083
4.414	0.003996187
4.415	0.003995978
4.416	0.003995350
4.417	0.003996083
4.418	0.003996240
4.419	0.003995141
4.420	0.003994670
4.421	0.003995821
4.422	0.003995821
4.423	0.003995611
4.424	0.003995874
4.425	0.003995507
4.426	0.003994879
4.427	0.003995141
4.428	0.003995611
4.429	0.003995350
4.430	0.003995978
4.431	0.003994984
4.432	0.003995089
4.433	0.003995874
4.434	0.003995193
4.435	0.003995507
4.436	0.003995507
4.437	0.003995141
4.438	0.003995193
4.439	0.003995141
4.440	0.003995716
4.441	0.003995193
4.442	0.003994932
4.443	0.003995193
4.444	0.003995350
4.445	0.003994670
4.446	0.003995298
4.447	0.003995036
4.448	0.003995559
4.449	0.003994670
4.450	0.003994461
4.451	0.003994199
4.452	0.003994147
4.453	0.003994932
4.454	0.003994879
4.455	0.003994147
4.456	0.003994147
4.457	0.003994618
4.458	0.003994723
4.459	0.003993415
4.460	0.003994879
4.461	0.003993624
4.462	0.003993833
4.463	0.003993990
4.464	0.003993415
4.465	0.003993049
4.466	0.003994094
4.467	0.003993885
4.468	0.003994042
4.469	0.003993728
4.470	0.003993571
4.471	0.003993362
4.472	0.003993885
4.473	0.003993833
4.474	0.003992786
4.475	0.003993467
4.476	0.003993362
4.477	0.003993781
4.478	0.003993205
4.479	0.003992577
4.480	0.003993571
4.481	0.003993571
4.482	0.003993205
4.483	0.003993362
4.484	0.003993728
4.485	0.003993467
4.486	0.003993362
4.487	0.003993885
4.488	0.003993937
4.489	0.003993571
4.490	0.003994618
4.491	0.003993676
4.492	0.003993833
4.493	0.003994199
4.494	0.003994618
4.495	0.003994147
4.496	0.003994618
4.497	0.003994461
4.498	0.003994251
4.499	0.003994147
4.500	0.003995298
4.501	0.003995402
4.502	0.003995978
4.503	0.003996240
4.504	0.003995926
4.505	0.003995874
4.506	0.003996501
4.507	0.003997966
4.508	0.003997757
4.509	0.003997809
4.510	0.003998123
4.511	0.003998489
4.512	0.003999797
4.513	0.003999745
4.514	0.003998593
4.515	0.003999431
4.516	0.004000843
4.517	0.004002151
4.518	0.004002936
4.519	0.004002256
4.520	0.004002517
4.521	0.004004139
4.522	0.004007017
4.523	0.004006912
4.524	0.004006912
4.525	0.004007278
4.526	0.004008795
4.527	0.004010941
4.528	0.004011411
4.529	0.004011097
4.530	0.004010626
4.531	0.004012405
4.532	0.004015335
4.533	0.004014655
4.534	0.004014864
4.535	0.004014602
4.536	0.004016485
4.537	0.004019311
4.538	0.004018369
4.539	0.004018892
4.540	0.004019049
4.541	0.004021927
4.542	0.004023548
4.543	0.004023705
4.544	0.004023025
4.545	0.004023810
4.546	0.004026271
4.547	0.004028834
4.548	0.004028731
4.549	0.004028671
4.550	0.004028731
4.551	0.004030771
4.552	0.004033283
4.553	0.004033960
4.554	0.004033437
4.555	0.004032914
4.556	0.004035057
4.557	0.004036317
4.558	0.004035949
4.559	0.004036103
4.560	0.004036257
4.561	0.004037937
4.562	0.004039240
4.563	0.004039506
4.564	0.004040029
4.565	0.004039609
4.566	0.004041597
4.567	0.004043166
4.568	0.004043166
4.569	0.004043166
4.570	0.004043063
4.571	0.004043534
4.572	0.004045206
4.573	0.004044734
4.574	0.004045309
4.575	0.004044109
4.576	0.004045574
4.577	0.004046251
4.578	0.004045994
4.579	0.004045574
4.580	0.004046723
4.581	0.004046877
4.582	0.004047246
4.583	0.004046569
4.584	0.004047246
4.585	0.004047349
4.586	0.004046569
4.587	0.004046989
4.588	0.004046620
4.589	0.004046149
4.590	0.004047409
4.591	0.004046303
4.592	0.004045831
4.593	0.004046046
4.594	0.004046723
4.595	0.004046046
4.596	0.004045257
4.597	0.004044006
4.598	0.004043843
4.599	0.004044314
4.600	0.004043903
4.601	0.004043011
4.602	0.004043740
4.603	0.004042694
4.604	0.004042274
4.605	0.004042909
4.606	0.004041494
4.607	0.004040757
4.608	0.004041074
4.609	0.004041546
4.610	0.004041023
4.611	0.004039609
4.612	0.004039660
4.613	0.004039977
4.614	0.004039926
4.615	0.004039403
4.616	0.004038614
4.617	0.004037466
4.618	0.004036523
4.619	0.004037937
4.620	0.004037569
4.621	0.004036420
4.622	0.004035006
4.623	0.004035846
4.624	0.004035631
4.625	0.004035006
4.626	0.004034954
4.627	0.004034329
4.628	0.004033643
4.629	0.004034063
4.630	0.004034380
4.631	0.004032811
4.632	0.004032546
4.633	0.004032229
4.634	0.004032340
4.635	0.004031817
4.636	0.004031654
4.637	0.004031654
4.638	0.004030926
4.639	0.004030189
4.640	0.004030711
4.641	0.004030137
4.642	0.004029777
4.643	0.004029777
4.644	0.004030086
4.645	0.004030557
4.646	0.004029254
4.647	0.004028834
4.648	0.004029143
4.649	0.004028209
4.650	0.004028620
4.651	0.004028260
4.652	0.004026794
4.653	0.004026949
4.654	0.004027103
4.655	0.004027523
4.656	0.004026057
4.657	0.004026691
4.658	0.004026426
4.659	0.004026006
4.660	0.004025536
4.661	0.004026220
4.662	0.004026743
4.663	0.004025749
4.664	0.004025903
4.665	0.004026794
4.666	0.004025536
4.667	0.004024647
4.668	0.004025484
4.669	0.004024752
4.670	0.004025170
4.671	0.004025222
4.672	0.004024961
4.673	0.004025170
4.674	0.004024909
4.675	0.004024229
4.676	0.004024124
4.677	0.004024281
4.678	0.004024438
4.679	0.004023757
4.680	0.004024124
4.681	0.004024856
4.682	0.004024647
4.683	0.004024229
4.684	0.004024595
4.685	0.004024333
4.686	0.004023287
4.687	0.004023810
4.688	0.004023810
4.689	0.004023757
4.690	0.004023235
4.691	0.004024019
4.692	0.004023810
4.693	0.004023548
4.694	0.004023235
4.695	0.004023496
4.696	0.004023810
4.697	0.004024595
4.698	0.004022973
4.699	0.004024177
4.700	0.004024071
4.701	0.004024281
4.702	0.004023705
4.703	0.004024177
4.704	0.004024333
4.705	0.004024229
4.706	0.004023496
4.707	0.004024229
4.708	0.004023757
4.709	0.004023967
4.710	0.004024019
4.711	0.004024124
4.712	0.004023810
4.713	0.004023705
4.714	0.004023601
4.715	0.004023182
4.716	0.004024752
4.717	0.004024647
4.718	0.004024177
4.719	0.004024071
4.720	0.004024281
4.721	0.004024490
4.722	0.004024124
4.723	0.004024333
4.724	0.004025536
4.725	0.004024229
4.726	0.004024595
4.727	0.004025903
4.728	0.004024699
4.729	0.004025065
4.730	0.004024752
4.731	0.004023862
4.732	0.004024229
4.733	0.004024490
4.734	0.004024856
4.735	0.004024071
4.736	0.004024490
4.737	0.004024438
4.738	0.004024490
4.739	0.004024229
4.740	0.004024856
4.741	0.004024386
4.742	0.004024543
4.743	0.004024909
4.744	0.004024333
4.745	0.004025222
4.746	0.004024856
4.747	0.004024019
4.748	0.004024438
4.749	0.004024281
4.750	0.004024647
4.751	0.004024490
4.752	0.004024019
4.753	0.004023548
4.754	0.004024386
4.755	0.004024856
4.756	0.004024490
4.757	0.004024647
4.758	0.004024229
4.759	0.004025170
4.760	0.004023862
4.761	0.004023810
4.762	0.004023287
4.763	0.004022397
4.764	0.004022659
4.765	0.004022973
4.766	0.004022345
4.767	0.004022188
4.768	0.004022397
4.769	0.004022397
4.770	0.004021927
4.771	0.004021508
4.772	0.004021874
4.773	0.004021874
4.774	0.004021508
4.775	0.004021404
4.776	0.004021351
4.777	0.004020253
4.778	0.004020723
4.779	0.004020619
4.780	0.004020305
4.781	0.004019625
4.782	0.004018369
4.783	0.004018631
4.784	0.004018892
4.785	0.004018840
4.786	0.004018107
4.787	0.004018422
4.788	0.004018055
4.789	0.004018160
4.790	0.004017898
4.791	0.004017741
4.792	0.004016643
4.793	0.004017218
4.794	0.004017532
4.795	0.004016172
4.796	0.004016957
4.797	0.004016015
4.798	0.004015806
4.799	0.004015492
4.800	0.004015125
4.801	0.004015544
4.802	0.004015701
4.803	0.004015178
4.804	0.004016224
4.805	0.004015858
4.806	0.004015178
4.807	0.004014916
4.808	0.004015178
4.809	0.004014498
4.810	0.004014864
4.811	0.004014393
4.812	0.004013870
4.813	0.004013870
4.814	0.004014811
4.815	0.004013661
4.816	0.004013294
4.817	0.004013399
4.818	0.004013190
4.819	0.004012771
4.820	0.004012981
4.821	0.004012928
4.822	0.004012458
4.823	0.004012667
4.824	0.004013294
4.825	0.004012667
4.826	0.004012249
4.827	0.004012928
4.828	0.004013503
4.829	0.004012458
4.830	0.004012981
4.831	0.004012301
4.832	0.004012301
4.833	0.004012143
4.834	0.004012301
4.835	0.004012667
4.836	0.004012196
4.837	0.004012458
4.838	0.004012249
4.839	0.004011725
4.840	0.004012458
4.841	0.004012143
4.842	0.004012981
4.843	0.004012039
4.844	0.004012196
4.845	0.004012196
4.846	0.004011882
4.847	0.004012405
4.848	0.004012615
4.849	0.004013294
4.850	0.004012928
4.851	0.004012039
4.852	0.004011568
4.853	0.004012405
4.854	0.004012301
4.855	0.004012039
4.856	0.004012458
4.857	0.004012876
4.858	0.004012562
4.859	0.004012091
4.860	0.004012405
4.861	0.004013923
4.862	0.004013870
4.863	0.004014341
4.864	0.004013923
4.865	0.004013503
4.866	0.004013661
4.867	0.004013399
4.868	0.004013190
4.869	0.004013503
4.870	0.004012824
4.871	0.004012824
4.872	0.004012876
4.873	0.004012353
4.874	0.004012405
4.875	0.004012196
4.876	0.004012928
4.877	0.004013033
4.878	0.004013818
4.879	0.004013766
4.880	0.004014079
4.881	0.004014445
4.882	0.004013137
4.883	0.004013661
4.884	0.004013608
4.885	0.004012981
4.886	0.004013923
4.887	0.004014079
4.888	0.004014811
4.889	0.004014236
4.890	0.004013399
4.891	0.004014498
4.892	0.004013818
4.893	0.004013713
4.894	0.004013503
4.895	0.004014445
4.896	0.004013556
4.897	0.004014811
4.898	0.004015073
4.899	0.004014445
4.900	0.004014393
4.901	0.004014445
4.902	0.004014341
4.903	0.004014550
4.904	0.004014498
4.905	0.004014341
4.906	0.004015335
4.907	0.004014341
4.908	0.004014341
4.909	0.004014707
4.910	0.004014707
4.911	0.004014498
4.912	0.004014864
4.913	0.004014289
4.914	0.004014916
4.915	0.004014707
4.916	0.004015283
4.917	0.004014341
4.918	0.004015021
4.919	0.004014916
4.920	0.004013608
4.921	0.004013870
4.922	0.004014498
4.923	0.004014079
4.924	0.004014498
4.925	0.004014498
4.926	0.004013870
4.927	0.004013556
4.928	0.004014236
4.929	0.004013556
4.930	0.004014079
4.931	0.004014393
4.932	0.004014341
4.933	0.004014027
4.934	0.004015073
4.935	0.004014602
4.936	0.004014602
4.937	0.004014027
4.938	0.004013870
4.939	0.004013766
4.940	0.004013766
4.941	0.004013294
4.942	0.004013713
4.943	0.004012719
4.944	0.004012876
4.945	0.004013923
4.946	0.004013294
4.947	0.004012824
4.948	0.004012458
4.949	0.004012615
4.950	0.004013033
4.951	0.004012615
4.952	0.004013294
4.953	0.004013556
4.954	0.004013399
4.955	0.004013608
4.956	0.004012405
4.957	0.004012143
4.958	0.004012091
4.959	0.004011725
4.960	0.004013033
4.961	0.004012301
4.962	0.004011777
4.963	0.004012039
4.964	0.004012301
4.965	0.004012091
4.966	0.004012301
4.967	0.004011934
4.968	0.004011307
4.969	0.004012196
4.970	0.004011777
4.971	0.004012091
4.972	0.004010731
4.973	0.004010574
4.974	0.004011829
4.975	0.004011202
4.976	0.004011359
4.977	0.004009946
4.978	0.004010574
4.979	0.004011150
4.980	0.004011045
4.981	0.004010260
4.982	0.004009633
4.983	0.004009528
4.984	0.004010312
4.985	0.004010469
4.986	0.004010365
4.987	0.004010103
4.988	0.004009999
4.989	0.004010103
4.990	0.004010051
4.991	0.004009894
4.992	0.004009580
4.993	0.004010260
4.994	0.004009894
4.995	0.004010260
4.996	0.004008952
4.997	0.004008168
4.998	0.004008063
4.999	0.004008586
5.000	0.004008377
